0.191,0.888099613,2.61434349,,,191
0.192,0.897979645,2.63080963,,,192
0.193,0.908050925,2.64765127,,,193
0.194,0.91841921,2.664792,,,194
0.195,0.929024226,2.6826699,,,195
0.196,0.940063691,2.70131254,,,196
0.197,0.951453097,2.72072467,,,197
0.198,0.963652452,2.74074816,,,198
0.199,0.976448714,2.76117584,,,199
0.2,0.989979661,2.78207445,,,200
0.201,1.0044858,2.80309782,,,201
0.202,1.01950329,2.824175,,,202
0.203,1.03548093,2.84529817,,,203
0.204,1.0522594,2.86614586,,,204
0.205,1.069513,2.88678813,,,205
0.206,1.08760828,2.90706361,,,206
0.207,1.10633565,2.92695347,,,207
0.208,1.12555229,2.94647166,,,208
0.209,1.14533104,2.96537357,,,209
0.21,1.16547134,2.98376897,,,210
0.211,1.18594948,3.00155387,,,211
0.212,1.20669961,3.0187093,,,212
0.213,1.22762385,3.03526528,,,213
0.214,1.24866793,3.05116879,,,214
0.215,1.26976644,3.06645494,,,215
0.216,1.2908483,3.08110333,,,216
0.217,1.31181023,3.09514551,,,217
0.218,1.33255567,3.10853384,,,218
0.219,1.35315322,3.12141454,,,219
0.22,1.37358118,3.13380233,,,220
0.221,1.39367793,3.14567802,,,221
0.222,1.41344067,3.1571072,,,222
0.223,1.43277697,3.16808486,,,223
0.224,1.45170506,3.1787139,,,224
0.225,1.47010228,3.1889818,,,225
0.226,1.48800162,3.19897559,,,226
0.227,1.50529478,3.20871904,,,227
0.228,1.52200572,3.21830842,,,228
0.229,1.53800441,3.22770277,,,229
0.23,1.55334009,3.23710044,,,230
0.231,1.56808828,3.24653278,,,231
0.232,1.58205497,3.25606451,,,232
0.233,1.5953116,3.26578441,,,233
0.234,1.60783266,3.27573964,,,234
0.235,1.61955463,3.28607293,,,235
0.236,1.63053738,3.29684293,,,236
0.237,1.64076983,3.30815137,,,237
0.238,1.65019348,3.32009666,,,238
0.239,1.65890861,3.33276725,,,239
0.24,1.66697665,3.34634876,,,240
0.241,1.67440854,3.36097557,,,241
0.242,1.68127017,3.37671396,,,242
0.243,1.6876437,3.39367092,,,243
0.244,1.69360617,3.41197614,,,244
0.245,1.69927292,3.43174832,,,245
0.246,1.70476019,3.45304132,,,246
0.247,1.71020316,3.47582645,,,247
0.248,1.71579376,3.50056086,,,248
0.249,1.7217166,3.5271504,,,249
0.25,1.72812073,3.55556241,,,250
0.251,1.73520986,3.58586846,,,251
0.252,1.74317826,3.61805408,,,252
0.253,1.7521953,3.65207758,,,253
0.254,1.76256712,3.68791432,,,254
0.255,1.77440411,3.72545938,,,255
0.256,1.78793461,3.76476793,,,256
0.257,1.80338873,3.80574976,,,257
0.258,1.82089967,3.84817202,,,258
0.259,1.84058759,3.89188369,,,259
0.26,1.86270692,3.93680106,,,260
0.261,1.88709878,3.9826069,,,261
0.262,1.91390723,4.02908651,,,262
0.263,1.94335252,4.07620853,,,263
0.264,1.97532857,4.12401661,,,264
0.265,2.00988323,4.17228441,,,265
0.266,2.04708989,4.22092586,,,266
0.267,2.08692819,4.2699156,,,267
0.268,2.12927777,4.31923305,,,268
0.269,2.17413795,4.36890693,,,269
0.27,2.22184362,4.41896702,,,270
0.271,2.27279388,4.4696136,,,271
0.272,2.32732183,4.52116739,,,272
0.273,2.38566135,4.5733987,,,273
0.274,2.44866904,4.62622331,,,274
0.275,2.51726424,4.67939289,,,275
0.276,2.59192197,4.73202199,,,276
0.277,2.67335854,4.78334808,,,277
0.278,2.76218094,4.83254112,,,278
0.279,2.85901968,4.87835837,,,279
0.28,2.96372515,4.91891297,,,280
0.281,3.07588104,4.95278115,,,281
0.282,3.1948671,4.97833049,,,282
0.283,3.31915391,4.99326258,,,283
0.284,3.44762126,4.99669272,,,284
0.285,3.57893258,4.98794098,,,285
0.286,3.71003963,4.9662679,,,286
0.287,3.83910916,4.9317658,,,287
0.288,3.96398919,4.88471102,,,288
0.289,4.08184225,4.82648273,,,289
0.29,4.19160358,4.75802719,,,290
0.291,4.29223052,4.68062707,,,291
0.292,4.38226115,4.5965891,,,292
0.293,4.46102642,4.50747971,,,293
0.294,4.52820878,4.41581592,,,294
0.295,4.58411047,4.323534,,,295
0.296,4.62909372,4.23248378,,,296
0.297,4.66461989,4.1439228,,,297
0.298,4.69159001,4.05867232,,,298
0.299,4.71126371,3.97821347,,,299
0.3,4.7249922,3.90301012,,,300
0.301,4.73397672,3.83340064,,,301
0.302,4.7396366,3.76950269,,,302
0.303,4.74281282,3.71104861,,,303
0.304,4.74463576,3.65734349,,,304
0.305,4.74574133,3.60789756,,,305
0.306,4.74668951,3.56224544,,,306
0.307,4.74779834,3.51987971,,,307
0.308,4.7492466,3.48035221,,,308
0.309,4.75112672,3.44303709,,,309
0.31,4.75344056,3.40756035,,,310
0.311,4.75614288,3.37362893,,,311
0.312,4.75913193,3.34103355,,,312
0.313,4.76230452,3.30962144,,,313
0.314,4.76555218,3.27930841,,,314
0.315,4.76879737,3.25001927,,,315
0.316,4.77198548,3.22162016,,,316
0.317,4.77507478,3.19407479,,,317
0.318,4.77802468,3.16746707,,,318
0.319,4.78083519,3.14184017,,,319
0.32,4.78352471,3.11717117,,,320
0.321,4.7861304,3.09346323,,,321
0.322,4.78867347,3.07073084,,,322
0.323,4.79122325,3.04894643,,,323
0.324,4.79381144,3.02807255,,,324
0.325,4.7965088,3.00811547,,,325
0.326,4.79933968,2.98907804,,,326
0.327,4.80237957,2.97087368,,,327
0.328,4.80565004,2.95345163,,,328
0.329,4.80921958,2.93676809,,,329
0.33,4.81309986,2.92081241,,,330
0.331,4.8173244,2.90553621,,,331
0.332,4.82189451,2.89090898,,,332
0.333,4.82684317,2.87681909,,,333
0.334,4.83217135,2.86323753,,,334
0.335,4.83788521,2.85012882,,,335
0.336,4.84398084,2.83747569,,,336
0.337,4.85045535,2.8252232,,,337
0.338,4.85729949,2.81335256,,,338
0.339,4.86451561,2.80182829,,,339
0.34,4.87210109,2.79062308,,,340
0.341,4.88004959,2.77975984,,,341
0.342,4.88835053,2.76924664,,,342
0.343,4.89702402,2.75905267,,,343
0.344,4.90607831,2.7491683,,,344
0.345,4.91552018,2.73961477,,,345
0.346,4.92539045,2.73041019,,,346
0.347,4.93571277,2.721532,,,347
0.348,4.94656477,2.71295524,,,348
0.349,4.95795197,2.7046967,,,349
0.35,4.96991966,2.69673271,,,350
0.351,4.98252345,2.68904676,,,351
0.352,4.99586604,2.68157334,,,352
0.353,5.01000963,2.67428361,,,353
0.354,5.02494971,2.6671317,,,354
0.355,5.04072888,2.66004724,,,355
0.356,5.05744509,2.65296306,,,356
0.357,5.07521493,2.64569807,,,357
0.358,5.09403929,2.63819521,,,358
0.359,5.11379115,2.63039776,,,359
0.36,5.13450383,2.62221951,,,360
0.361,5.15629195,2.61343375,,,361
0.362,5.17918375,2.60385278,,,362
0.363,5.20305685,2.59343399,,,363
0.364,5.22768662,2.58213487,,,364
0.365,5.25309736,2.5698418,,,365
0.366,5.27930678,2.5563066,,,366
0.367,5.30626884,2.5414781,,,367
0.368,5.33376501,2.5252803,,,368
0.369,5.36149569,2.50762127,,,369
0.37,5.38943985,2.48846984,,,370
0.371,5.41751678,2.46780869,,,371
0.372,5.44570252,2.44571327,,,372
0.373,5.47374868,2.42207414,,,373
0.374,5.50129731,2.39679693,,,374
0.375,5.52834635,2.36991956,,,375
0.376,5.55475586,2.34160522,,,376
0.377,5.58049625,2.31194537,,,377
0.378,5.6054818,2.28096012,,,378
0.379,5.62939389,2.24879183,,,379
0.38,5.65224941,2.21548148,,,380
0.381,5.6739609,2.18113924,,,381
0.382,5.69441843,2.14588209,,,382
0.383,5.71366146,2.10971851,,,383
0.384,5.73161305,2.07300684,,,384
0.385,5.74825124,2.03591049,,,385
0.386,5.76362256,1.99842862,,,386
0.387,5.77783367,1.96068141,,,387
0.388,5.79092226,1.92268689,,,388
0.389,5.80292881,1.88448935,,,389
0.39,5.81396114,1.84630493,,,390
0.391,5.82405079,1.80814528,,,391
0.392,5.83327054,1.76994598,,,392
0.393,5.84178326,1.73154931,,,393
0.394,5.84961949,1.69293217,,,394
0.395,5.85676551,1.6540912,,,395
0.396,5.86311192,1.61496784,,,396
0.397,5.86866319,1.57554339,,,397
0.398,5.87335772,1.53575858,,,398
0.399,5.87697088,1.49553995,,,399
0.4,5.87949793,1.45486873,,,400
0.401,5.88088076,1.41379776,,,401
0.402,5.88086475,1.37257555,,,402
0.403,5.87942296,1.33121398,,,403
0.404,5.87648773,1.28971946,,,404
0.405,5.87199736,1.24845284,,,405
0.406,5.86594435,1.20748189,,,406
0.407,5.85829034,1.16691299,,,407
0.408,5.84927241,1.12703058,,,408
0.409,5.83897917,1.08791649,,,409
0.41,5.8273501,1.0495799,,,410
0.411,5.81455525,1.01207039,,,411
0.412,5.80073577,0.975421444,,,412
0.413,5.78588552,0.939776323,,,413
0.414,5.77011606,0.905178697,,,414
0.415,5.75365097,0.871601664,,,415
0.416,5.73649273,0.83908509,,,416
0.417,5.71865429,0.80762836,,,417
0.418,5.70023372,0.777083723,,,418
0.419,5.68129048,0.74750464,,,419
0.42,5.66188877,0.719001207,,,420
0.421,5.64209408,0.691504313,,,421
0.422,5.62195655,0.664989617,,,422
0.423,5.60152611,0.639504738,,,423
0.424,5.58079758,0.615011551,,,424
0.425,5.55977839,0.591426518,,,425
0.426,5.53860952,0.568811202,,,426
0.427,5.51732281,0.547177664,,,427
0.428,5.49594295,0.526487878,,,428
0.429,5.4745376,0.506705442,,,429
0.43,5.45315492,0.487809284,,,430
0.431,5.43178387,0.469777748,,,431
0.432,5.41044193,0.452565606,,,432
0.433,5.38923612,0.436167669,,,433
0.434,5.36817061,0.420581683,,,434
0.435,5.34725719,0.405779776,,,435
0.436,5.3265481,0.391697651,,,436
0.437,5.30606365,0.378308457,,,437
0.438,5.28579524,0.365603285,,,438
0.439,5.26574957,0.353538454,,,439
0.44,5.24600635,0.342090478,,,440
0.441,5.22656759,0.331257715,,,441
0.442,5.20743354,0.321030625,,,442
0.443,5.18860768,0.311313267,,,443
0.444,5.17008716,0.302050184,,,444
0.445,5.15186879,0.293240814,,,445
0.446,5.1339434,0.284862571,,,446
0.447,5.11633541,0.276877702,,,447
0.448,5.09904823,0.269281203,,,448
0.449,5.08208002,0.262072336,,,449
0.45,5.06543928,0.255224207,,,450
0.451,5.04912698,0.248689729,,,451
0.452,5.03314079,0.242467133,,,452
0.453,5.01747557,0.236553138,,,453
0.454,5.00209992,0.230894864,,,454
0.455,4.98700106,0.225461622,,,455
0.456,4.97217713,0.220253037,,,456
0.457,4.95762705,0.21526758,,,457
0.458,4.94335239,0.210484509,,,458
0.459,4.92935143,0.205895214,,,459
0.46,4.91562242,0.201499294,,,460
0.461,4.90216122,0.197292823,,,461
0.462,4.88894327,0.19324079,,,462
0.463,4.87596104,0.189333691,,,463
0.464,4.86321302,0.185571162,,,464
0.465,4.85069651,0.181950914,,,465
0.466,4.83839909,0.178454986,,,466
0.467,4.82631668,0.175078751,,,467
0.468,4.8144479,0.171821852,,,468
0.469,4.80279029,0.168682589,,,469
0.47,4.79133122,0.165645681,,,470
0.471,4.78006638,0.162706521,,,471
0.472,4.7689945,0.159864782,,,472
0.473,4.75811371,0.157119669,,,473
0.474,4.74740879,0.154459219,,,474
0.475,4.73687155,0.151876743,,,475
0.476,4.72650087,0.14937195,,,476
0.477,4.71629567,0.146944496,,,477
0.478,4.70625521,0.144590069,,,478
0.479,4.69637781,0.142304241,,,479
0.48,4.68666231,0.140086625,,,480
0.481,4.67710763,0.137936941,,,481
0.482,4.66770385,0.13585079,,,482
0.483,4.65843401,0.133818849,,,483
0.484,4.64929624,0.131839886,,,484
0.485,4.64028964,0.129913664,,,485
0.486,4.63141489,0.12803981,,,486
0.487,4.62267625,0.126216072,,,487
0.488,4.61407071,0.124440087,,,488
0.489,4.60559732,0.122711619,,,489
0.49,4.59725486,0.121030334,,,490
0.491,4.5890294,0.119391187,,,491
0.492,4.58091464,0.117790341,,,492
0.493,4.57291018,0.116227293,,,493
0.494,4.56501527,0.114701857,,,494
0.495,4.55723072,0.113213648,,,495
0.496,4.54955768,0.111760878,,,496
0.497,4.54198927,0.110340807,,,497
0.498,4.53452447,0.108953156,,,498
0.499,4.52716246,0.107597725,,,499
0.5,4.51989699,0.106272101,,,500
0.501,4.51272684,0.104974664,,,501
0.502,4.50565365,0.103705182,,,502
0.503,4.49867675,0.102463511,,,503
0.504,4.49179495,0.10124924,,,504
0.505,4.48500406,0.100060454,,,505
0.506,4.4782964,0.098894739,,,506
0.507,4.47166886,0.097751198,,,507
0.508,4.46512088,0.096629709,,,508
0.509,4.45865179,0.095529812,,,509
0.51,4.45226105,0.094450538,,,510
0.511,4.44595061,0.093391594,,,511
0.512,4.43972053,0.092352835,,,512
0.513,4.43357025,0.091334152,,,513
0.514,4.42749813,0.090334805,,,514
0.515,4.42150181,0.089353701,,,515
0.516,4.41557765,0.088389714,,,516
0.517,4.40972445,0.08744252,,,517
0.518,4.40394171,0.086512024,,,518
0.519,4.39822604,0.085597305,,,519
0.52,4.39257384,0.084697359,,,520
0.521,4.38698328,0.083811523,,,521
0.522,4.38145353,0.082939554,,,522
0.523,4.37598416,0.082081372,,,523
0.524,4.37057507,0.081236671,,,524
0.525,4.36522621,0.080405102,,,525
0.526,4.35993714,0.07958635,,,526
0.527,4.35470741,0.078780225,,,527
0.528,4.34953661,0.077986655,,,528
0.529,4.34442344,0.077205264,,,529
0.53,4.33936593,0.076435435,,,530
0.531,4.33436319,0.075676876,,,531
0.532,4.32941427,0.074929257,,,532
0.533,4.32451879,0.074192514,,,533
0.534,4.31967596,0.073466447,,,534
0.535,4.31488378,0.072750447,,,535
0.536,4.31014127,0.072044296,,,536
0.537,4.30544596,0.071347477,,,537
0.538,4.3007973,0.070659882,,,538
0.539,4.29619493,0.069981445,,,539
0.54,4.29163828,0.06931191,,,540
0.541,4.28712696,0.06865115,,,541
0.542,4.28266094,0.067999059,,,542
0.543,4.27824011,0.067355553,,,543
0.544,4.27386414,0.066720581,,,544
0.545,4.26953198,0.066093891,,,545
0.546,4.2652419,0.06547506,,,546
0.547,4.2609934,0.064863989,,,547
0.548,4.25678536,0.064260426,,,548
0.549,4.25261737,0.063664299,,,549
0.55,4.24848911,0.063075551,,,550
0.551,4.24439964,0.06249393,,,551
0.552,4.24034843,0.06191931,,,552
0.553,4.23633487,0.061351562,,,553
0.554,4.23235811,0.060790495,,,554
0.555,4.22841791,0.060236068,,,555
0.556,4.2245139,0.059688209,,,556
0.557,4.22064552,0.059146752,,,557
0.558,4.21681247,0.058611641,,,558
0.559,4.21301444,0.058082808,,,559
0.56,4.20925113,0.057560188,,,560
0.561,4.2055223,0.057043745,,,561
0.562,4.20182733,0.056533346,,,562
0.563,4.19816517,0.056028758,,,563
0.564,4.19453555,0.055529934,,,564
0.565,4.19093765,0.055036713,,,565
0.566,4.1873709,0.054548987,,,566
0.567,4.18383509,0.05406672,,,567
0.568,4.18032942,0.053589774,,,568
0.569,4.1768527,0.053117936,,,569
0.57,4.17340472,0.052651171,,,570
0.571,4.16998504,0.052189394,,,571
0.572,4.16659331,0.051732537,,,572
0.573,4.16322934,0.05128057,,,573
0.574,4.15989333,0.050833495,,,574
0.575,4.15658589,0.050391346,,,575
0.576,4.15330685,0.049954096,,,576
0.577,4.15005594,0.049521695,,,577
0.578,4.14683286,0.04909409,,,578
0.579,4.14363743,0.048671253,,,579
0.58,4.14046899,0.04825308,,,580
0.581,4.13732559,0.047839264,,,581
0.582,4.13420688,0.047429751,,,582
0.583,4.13111259,0.047024489,,,583
0.584,4.12804219,0.046623372,,,584
0.585,4.12499546,0.046226368,,,585
0.586,4.12197229,0.045833453,,,586
0.587,4.11897296,0.045444631,,,587
0.588,4.11599747,0.045059889,,,588
0.589,4.11304563,0.044679199,,,589
0.59,4.11011677,0.044302455,,,590
0.591,4.1072105,0.043929598,,,591
0.592,4.10432667,0.043560604,,,592
0.593,4.10146496,0.043195414,,,593
0.594,4.09862489,0.042833936,,,594
0.595,4.09580631,0.042476146,,,595
0.596,4.09300923,0.042122034,,,596
0.597,4.09023399,0.041771627,,,597
0.598,4.08748051,0.041424905,,,598
0.599,4.08474861,0.041081842,,,599
0.6,4.0820375,0.040742297,,,600
0.601,4.0793467,0.04040619,,,601
0.602,4.07667608,0.0400735,,,602
0.603,4.07402497,0.039744127,,,603
0.604,4.07139259,0.039417956,,,604
0.605,4.06877882,0.039094965,,,605
0.606,4.06618356,0.038775136,,,606
0.607,4.06360681,0.038458457,,,607
0.608,4.06104851,0.03814491,,,608
0.609,4.05850853,0.037834475,,,609
0.61,4.05598695,0.037527152,,,610
0.611,4.05348379,0.037222932,,,611
0.612,4.05099894,0.036921796,,,612
0.613,4.04853221,0.036623711,,,613
0.614,4.04608301,0.03632857,,,614
0.615,4.04365116,0.03603634,,,615
0.616,4.04123655,0.035747002,,,616
0.617,4.03883892,0.035460511,,,617
0.618,4.0364581,0.035176831,,,618
0.619,4.03409396,0.034895943,,,619
0.62,4.0317464,0.03461783,,,620
0.621,4.02941536,0.034342461,,,621
0.622,4.02710075,0.034069815,,,622
0.623,4.02480246,0.033799876,,,623
0.624,4.02252015,0.033532589,,,624
0.625,4.02025347,0.033267891,,,625
0.626,4.01800229,0.033005764,,,626
0.627,4.01576652,0.032746191,,,627
0.628,4.01354572,0.032489101,,,628
0.629,4.01133956,0.032234442,,,629
0.63,4.00914797,0.031982198,,,630
0.631,4.00697085,0.031732355,,,631
0.632,4.00480823,0.031484904,,,632
0.633,4.00266001,0.031239831,,,633
0.634,4.00052611,0.030997119,,,634
0.635,3.99840642,0.030756749,,,635
0.636,3.99630085,0.030518684,,,636
0.637,3.9942093,0.030282908,,,637
0.638,3.99213169,0.030049406,,,638
0.639,3.99006774,0.029818129,,,639
0.64,3.98801725,0.029589042,,,640
0.641,3.98598015,0.02936213,,,641
0.642,3.98395634,0.029137381,,,642
0.643,3.98194562,0.028914753,,,643
0.644,3.97994782,0.028694211,,,644
0.645,3.97796285,0.028475741,,,645
0.646,3.97599063,0.02825933,,,646
0.647,3.97403113,0.028044958,,,647
0.648,3.97208427,0.027832612,,,648
0.649,3.97014998,0.027622278,,,649
0.65,3.96822817,0.027413943,,,650
0.651,3.96631866,0.027207569,,,651
0.652,3.96442132,0.027003131,,,652
0.653,3.96253607,0.026800616,,,653
0.654,3.96066279,0.026600004,,,654
0.655,3.95880119,0.026401249,,,655
0.656,3.95695117,0.026204335,,,656
0.657,3.95511267,0.026009252,,,657
0.658,3.95328561,0.025815987,,,658
0.659,3.95146979,0.025624498,,,659
0.66,3.94966508,0.02543476,,,660
0.661,3.9478714,0.025246761,,,661
0.662,3.9460887,0.025060488,,,662
0.663,3.94431691,0.024875918,,,663
0.664,3.94255595,0.02469304,,,664
0.665,3.94080578,0.024511844,,,665
0.666,3.93906631,0.024332318,,,666
0.667,3.93733746,0.024154441,,,667
0.668,3.93561913,0.023978189,,,668
0.669,3.93391126,0.023803552,,,669
0.67,3.93221376,0.023630518,,,670
0.671,3.93052651,0.023459059,,,671
0.672,3.92884942,0.023289159,,,672
0.673,3.92718242,0.02312081,,,673
0.674,3.92552546,0.022954001,,,674
0.675,3.92387844,0.022788716,,,675
0.676,3.92224109,0.022624906,,,676
0.677,3.92061331,0.022462556,,,677
0.678,3.91899506,0.022301657,,,678
0.679,3.91738625,0.02214219,,,679
0.68,3.91578677,0.021984135,,,680
0.681,3.91419658,0.021827483,,,681
0.682,3.91261562,0.021672227,,,682
0.683,3.91104383,0.021518358,,,683
0.684,3.90948119,0.021365863,,,684
0.685,3.90792767,0.021214732,,,685
0.686,3.90638323,0.021064954,,,686
0.687,3.90484781,0.020916521,,,687
0.688,3.90332126,0.020769406,,,688
0.689,3.90180352,0.020623597,,,689
0.69,3.90029454,0.020479085,,,690
0.691,3.89879427,0.020335863,,,691
0.692,3.89730264,0.020193922,,,692
0.693,3.89581954,0.020053238,,,693
0.694,3.89434485,0.019913783,,,694
0.695,3.8928785,0.019775549,,,695
0.696,3.89142045,0.019638528,,,696
0.697,3.88997063,0.019502701,,,697
0.698,3.888529,0.01936806,,,698
0.699,3.88709551,0.019234597,,,699
0.7,3.88567011,0.019102306,,,700
0.701,3.88425275,0.018971179,,,701
0.702,3.88284337,0.018841202,,,702
0.703,3.88144191,0.018712355,,,703
0.704,3.8800483,0.018584631,,,704
0.705,3.8786625,0.01845802,,,705
0.706,3.87728434,0.018332494,,,706
0.707,3.87591376,0.018208043,,,707
0.708,3.87455071,0.018084661,,,708
0.709,3.87319516,0.017962342,,,709
0.71,3.87184705,0.017841078,,,710
0.711,3.87050634,0.017720862,,,711
0.712,3.86917285,0.017601665,,,712
0.713,3.86784651,0.017483477,,,713
0.714,3.86652729,0.017366292,,,714
0.715,3.86521518,0.017250101,,,715
0.716,3.86391014,0.017134896,,,716
0.717,3.86261214,0.017020671,,,717
0.718,3.86132114,0.016907422,,,718
0.719,3.8600371,0.01679514,,,719
0.72,3.85875997,0.016683822,,,720
0.721,3.85748973,0.016573456,,,721
0.722,3.85622634,0.016464024,,,722
0.723,3.85496976,0.016355521,,,723
0.724,3.85371995,0.016247936,,,724
0.725,3.85247679,0.01614125,,,725
0.726,3.85124026,0.016035457,,,726
0.727,3.85001031,0.015930551,,,727
0.728,3.8487869,0.015826528,,,728
0.729,3.84757001,0.015723381,,,729
0.73,3.84635959,0.015621106,,,730
0.731,3.84515552,0.015519687,,,731
0.732,3.84395765,0.015419102,,,732
0.733,3.84276593,0.015319344,,,733
0.734,3.84158033,0.015220404,,,734
0.735,3.8404008,0.015122271,,,735
0.736,3.8392273,0.015024941,,,736
0.737,3.83805981,0.014928408,,,737
0.738,3.83689829,0.014832668,,,738
0.739,3.83574271,0.014737715,,,739
0.74,3.83459303,0.014643547,,,740
0.741,3.83344926,0.014550156,,,741
0.742,3.83231148,0.014457539,,,742
0.743,3.83117967,0.01436569,,,743
0.744,3.83005377,0.014274599,,,744
0.745,3.82893369,0.014184253,,,745
0.746,3.82781939,0.014094647,,,746
0.747,3.82671085,0.014005777,,,747
0.748,3.82560803,0.013917638,,,748
0.749,3.82451091,0.013830227,,,749
0.75,3.82341945,0.013743539,,,750
0.751,3.82233361,0.01365757,,,751
0.752,3.82125321,0.013572296,,,752
0.753,3.82017811,0.013487701,,,753
0.754,3.81910829,0.01340378,,,754
0.755,3.81804373,0.013320521,,,755
0.756,3.8169844,0.01323792,,,756
0.757,3.81593027,0.013155974,,,757
0.758,3.81488131,0.013074678,,,758
0.759,3.8138375,0.012994029,,,759
0.76,3.8127988,0.012914023,,,760
0.761,3.8117652,0.012834656,,,761
0.762,3.81073666,0.012755925,,,762
0.763,3.80971323,0.012677822,,,763
0.764,3.80869491,0.012600343,,,764
0.765,3.8076816,0.012523476,,,765
0.766,3.80667323,0.012447211,,,766
0.767,3.80566979,0.012371544,,,767
0.768,3.80467123,0.012296473,,,768
0.769,3.80367753,0.012221993,,,769
0.77,3.80268868,0.012148102,,,770
0.771,3.80170463,0.012074795,,,771
0.772,3.80072537,0.01200207,,,772
0.773,3.79975087,0.011929923,,,773
0.774,3.79878101,0.011858338,,,774
0.775,3.79781572,0.011787305,,,775
0.776,3.79685504,0.011716819,,,776
0.777,3.79589897,0.011646878,,,777
0.778,3.79494748,0.011577477,,,778
0.779,3.79400055,0.011508615,,,779
0.78,3.79305816,0.011440287,,,780
0.781,3.79212029,0.011372492,,,781
0.782,3.7911869,0.011305225,,,782
0.783,3.79025797,0.011238484,,,783
0.784,3.78933349,0.011172265,,,784
0.785,3.78841344,0.011106565,,,785
0.786,3.78749781,0.011041374,,,786
0.787,3.78658649,0.010976681,,,787
0.788,3.78567942,0.010912475,,,788
0.789,3.78477657,0.010848754,,,789
0.79,3.78387791,0.010785516,,,790
0.791,3.78298343,0.010722757,,,791
0.792,3.78209309,0.010660475,,,792
0.793,3.7812069,0.010598668,,,793
0.794,3.78032481,0.010537332,,,794
0.795,3.7794468,0.010476465,,,795
0.796,3.77857287,0.010416064,,,796
0.797,3.77770296,0.010356123,,,797
0.798,3.77683704,0.01029663,,,798
0.799,3.77597511,0.010237581,,,799
0.8,3.77511717,0.010178973,,,800
0.801,3.7742632,0.010120803,,,801
0.802,3.77341316,0.01006307,,,802
0.803,3.77256705,0.010005771,,,803
0.804,3.77172484,0.009948903,,,804
0.805,3.77088652,0.009892463,,,805
0.806,3.77005205,0.009836451,,,806
0.807,3.76922143,0.009780863,,,807
0.808,3.76839463,0.009725696,,,808
0.809,3.76757163,0.009670947,,,809
0.81,3.76675233,0.0096166,,,810
0.811,3.76593668,0.009562648,,,811
0.812,3.76512464,0.009509087,,,812
0.813,3.76431621,0.009455916,,,813
0.814,3.76351136,0.009403132,,,814
0.815,3.76271007,0.009350734,,,815
0.816,3.76191233,0.009298718,,,816
0.817,3.76111813,0.009247084,,,817
0.818,3.76032743,0.009195829,,,818
0.819,3.75954023,0.00914495,,,819
0.82,3.75875651,0.009094446,,,820
0.821,3.75797625,0.009044315,,,821
0.822,3.75719944,0.008994549,,,822
0.823,3.75642608,0.008945142,,,823
0.824,3.75565615,0.00889609,,,824
0.825,3.75488965,0.008847393,,,825
0.826,3.75412654,0.008799047,,,826
0.827,3.75336682,0.008751052,,,827
0.828,3.75261047,0.008703405,,,828
0.829,3.75185746,0.008656104,,,829
0.83,3.75110779,0.008609148,,,830
0.831,3.75036144,0.008562534,,,831
0.832,3.74961838,0.008516261,,,832
0.833,3.74887861,0.008470326,,,833
0.834,3.74814211,0.008424729,,,834
0.835,3.7474088,0.008379456,,,835
0.836,3.74667864,0.008334501,,,836
0.837,3.7459516,0.008289861,,,837
0.838,3.74522768,0.008245536,,,838
0.839,3.74450685,0.008201522,,,839
0.84,3.74378911,0.008157818,,,840
0.841,3.74307443,0.008114423,,,841
0.842,3.74236281,0.008071336,,,842
0.843,3.74165422,0.008028554,,,843
0.844,3.74094866,0.007986075,,,844
0.845,3.7402461,0.007943899,,,845
0.846,3.73954654,0.007902023,,,846
0.847,3.73884995,0.007860445,,,847
0.848,3.73815631,0.007819159,,,848
0.849,3.73746559,0.007778158,,,849
0.85,3.7367778,0.00773744,,,850
0.851,3.73609292,0.007697004,,,851
0.852,3.73541093,0.007656847,,,852
0.853,3.73473181,0.00761697,,,853
0.854,3.73405556,0.007577369,,,854
0.855,3.73338216,0.007538044,,,855
0.856,3.7327116,0.007498993,,,856
0.857,3.73204386,0.007460215,,,857
0.858,3.73137893,0.007421708,,,858
0.859,3.73071679,0.007383471,,,859
0.86,3.73005744,0.007345502,,,860
0.861,3.72940086,0.007307798,,,861
0.862,3.72874703,0.007270353,,,862
0.863,3.7280959,0.007233162,,,863
0.864,3.72744745,0.007196222,,,864
0.865,3.72680166,0.007159533,,,865
0.866,3.72615854,0.007123091,,,866
0.867,3.72551805,0.007086898,,,867
0.868,3.7248802,0.00705095,,,868
0.869,3.72424496,0.007015247,,,869
0.87,3.72361234,0.006979788,,,870
0.871,3.7229823,0.006944571,,,871
0.872,3.72235484,0.006909595,,,872
0.873,3.72172996,0.006874859,,,873
0.874,3.72110762,0.00684036,,,874
0.875,3.7204878,0.006806093,,,875
0.876,3.71987048,0.006772057,,,876
0.877,3.71925565,0.006738248,,,877
0.878,3.71864331,0.006704662,,,878
0.879,3.71803344,0.0066713,,,879
0.88,3.71742604,0.00663816,,,880
0.881,3.71682108,0.00660524,,,881
0.882,3.71621857,0.00657254,,,882
0.883,3.71561848,0.006540058,,,883
0.884,3.71502081,0.006507794,,,884
0.885,3.71442554,0.006475746,,,885
0.886,3.71383267,0.006443913,,,886
0.887,3.71324218,0.006412294,,,887
0.888,3.71265407,0.006380887,,,888
0.889,3.71206831,0.006349689,,,889
0.89,3.71148492,0.006318699,,,890
0.891,3.71090386,0.006287915,,,891
0.892,3.7103251,0.006257332,,,892
0.893,3.70974863,0.006226947,,,893
0.894,3.70917442,0.006196759,,,894
0.895,3.70860248,0.006166768,,,895
0.896,3.70803278,0.006136972,,,896
0.897,3.70746533,0.00610737,,,897
0.898,3.7069001,0.006077962,,,898
0.899,3.70633709,0.006048745,,,899
0.9,3.70577629,0.006019721,,,900
0.901,3.70521769,0.005990887,,,901
0.902,3.70466128,0.005962242,,,902
0.903,3.70410703,0.005933783,,,903
0.904,3.70355492,0.005905507,,,904
0.905,3.70300495,0.005877414,,,905
0.906,3.70245709,0.005849502,,,906
0.907,3.70191136,0.005821769,,,907
0.908,3.70136774,0.005794213,,,908
0.909,3.70082622,0.005766832,,,909
0.91,3.7002868,0.005739626,,,910
0.911,3.69974947,0.005712593,,,911
0.912,3.69921421,0.005685733,,,912
0.913,3.69868103,0.005659045,,,913
0.914,3.6981499,0.005632528,,,914
0.915,3.69762081,0.005606181,,,915
0.916,3.69709377,0.005580004,,,916
0.917,3.69656876,0.005553995,,,917
0.918,3.69604578,0.005528152,,,918
0.919,3.69552481,0.005502474,,,919
0.92,3.69500584,0.005476959,,,920
0.921,3.69448888,0.005451607,,,921
0.922,3.69397391,0.005426417,,,922
0.923,3.69346089,0.005401386,,,923
0.924,3.69294982,0.005376512,,,924
0.925,3.69244068,0.005351792,,,925
0.926,3.69193346,0.005327227,,,926
0.927,3.69142816,0.005302815,,,927
0.928,3.69092476,0.005278557,,,928
0.929,3.69042325,0.005254451,,,929
0.93,3.68992364,0.005230496,,,930
0.931,3.6894259,0.005206692,,,931
0.932,3.68893004,0.005183037,,,932
0.933,3.68843603,0.005159531,,,933
0.934,3.68794386,0.005136171,,,934
0.935,3.68745351,0.005112954,,,935
0.936,3.68696498,0.005089882,,,936
0.937,3.68647825,0.005066953,,,937
0.938,3.68599333,0.005044165,,,938
0.939,3.6855102,0.00502152,,,939
0.94,3.68502885,0.004999011,,,940
0.941,3.68454925,0.004976637,,,941
0.942,3.6840714,0.004954399,,,942
0.943,3.6835953,0.004932294,,,943
0.944,3.68312094,0.004910324,,,944
0.945,3.68264831,0.004888486,,,945
0.946,3.68217741,0.004866781,,,946
0.947,3.68170821,0.004845207,,,947
0.948,3.68124073,0.004823765,,,948
0.949,3.68077495,0.004802452,,,949
0.95,3.68031087,0.004781267,,,950
0.951,3.67984848,0.004760209,,,951
0.952,3.67938777,0.004739278,,,952
0.953,3.67892874,0.004718473,,,953
0.954,3.67847138,0.004697794,,,954
0.955,3.67801568,0.004677239,,,955
0.956,3.67756163,0.004656809,,,956
0.957,3.67710927,0.004636503,,,957
0.958,3.67665858,0.004616321,,,958
0.959,3.67620957,0.004596263,,,959
0.96,3.67576221,0.004576329,,,960
0.961,3.67531652,0.004556516,,,961
0.962,3.67487248,0.004536826,,,962
0.963,3.67443008,0.004517256,,,963
0.964,3.67398931,0.004497808,,,964
0.965,3.67355018,0.004478479,,,965
0.966,3.67311265,0.004459268,,,966
0.967,3.67267672,0.004440174,,,967
0.968,3.67224238,0.004421196,,,968
0.969,3.67180963,0.004402333,,,969
0.97,3.67137845,0.004383585,,,970
0.971,3.67094885,0.004364952,,,971
0.972,3.67052081,0.004346432,,,972
0.973,3.67009433,0.004328026,,,973
0.974,3.66966938,0.004309731,,,974
0.975,3.6692459,0.004291541,,,975
0.976,3.66882385,0.004273452,,,976
0.977,3.66840323,0.004255465,,,977
0.978,3.66798403,0.004237579,,,978
0.979,3.66756625,0.004219794,,,979
0.98,3.66714988,0.004202109,,,980
0.981,3.66673492,0.004184523,,,981
0.982,3.66632136,0.004167036,,,982
0.983,3.66590918,0.004149646,,,983
0.984,3.66549838,0.004132351,,,984
0.985,3.66508895,0.004115152,,,985
0.986,3.66468089,0.004098047,,,986
0.987,3.66427419,0.004081037,,,987
0.988,3.66386884,0.004064121,,,988
0.989,3.66346485,0.004047298,,,989
0.99,3.66306219,0.004030569,,,990
0.991,3.66266088,0.004013932,,,991
0.992,3.6622609,0.003997387,,,992
0.993,3.66186229,0.003980935,,,993
0.994,3.6614651,0.003964578,,,994
0.995,3.66106933,0.003948316,,,995
0.996,3.66067496,0.003932148,,,996
0.997,3.660282,0.003916074,,,997
0.998,3.65989043,0.003900093,,,998
0.999,3.65950026,0.003884205,,,999
1,3.65911148,0.003868409,,,1000
1.001,3.6587241,0.003852705,,,1001
1.002,3.65833811,0.003837094,,,1002
1.003,3.65795352,0.003821574,,,1003
1.004,3.65757031,0.003806146,,,1004
1.005,3.65718848,0.003790808,,,1005
1.006,3.65680802,0.003775561,,,1006
1.007,3.65642893,0.003760403,,,1007
1.008,3.6560512,0.003745335,,,1008
1.009,3.65567483,0.003730356,,,1009
1.01,3.65529981,0.003715466,,,1010
1.011,3.65492613,0.003700664,,,1011
1.012,3.65455378,0.003685948,,,1012
1.013,3.65418265,0.003671315,,,1013
1.014,3.65381273,0.003656762,,,1014
1.015,3.65344403,0.003642291,,,1015
1.016,3.65307653,0.003627899,,,1016
1.017,3.65271024,0.003613588,,,1017
1.018,3.65234513,0.003599355,,,1018
1.019,3.65198116,0.003585198,,,1019
1.02,3.65161832,0.003571114,,,1020
1.021,3.65125661,0.003557103,,,1021
1.022,3.65089601,0.003543166,,,1022
1.023,3.65053652,0.003529302,,,1023
1.024,3.65017815,0.00351551,,,1024
1.025,3.64982088,0.00350179,,,1025
1.026,3.64946471,0.003488142,,,1026
1.027,3.64910963,0.003474565,,,1027
1.028,3.64875565,0.00346106,,,1028
1.029,3.64840276,0.003447625,,,1029
1.03,3.64805095,0.003434261,,,1030
1.031,3.64770022,0.003420968,,,1031
1.032,3.64735058,0.003407744,,,1032
1.033,3.6470021,0.003394592,,,1033
1.034,3.64665478,0.00338151,,,1034
1.035,3.64630861,0.003368498,,,1035
1.036,3.64596359,0.003355556,,,1036
1.037,3.64561973,0.003342685,,,1037
1.038,3.64527707,0.003329884,,,1038
1.039,3.6449356,0.003317155,,,1039
1.04,3.64459533,0.003304496,,,1040
1.041,3.64425624,0.003291907,,,1041
1.042,3.64391833,0.003279388,,,1042
1.043,3.6435816,0.003266939,,,1043
1.044,3.64324604,0.00325456,,,1044
1.045,3.64291165,0.003242249,,,1045
1.046,3.64257842,0.003230007,,,1046
1.047,3.64224635,0.003217833,,,1047
1.048,3.64191543,0.003205727,,,1048
1.049,3.64158567,0.003193689,,,1049
1.05,3.64125704,0.003181719,,,1050
1.051,3.64092955,0.003169816,,,1051
1.052,3.6406032,0.003157979,,,1052
1.053,3.64027797,0.003146209,,,1053
1.054,3.63995379,0.003134501,,,1054
1.055,3.63963067,0.003122855,,,1055
1.056,3.63930859,0.003111271,,,1056
1.057,3.63898752,0.003099747,,,1057
1.058,3.63866743,0.003088281,,,1058
1.059,3.6383483,0.003076873,,,1059
1.06,3.63803013,0.003065523,,,1060
1.061,3.63771293,0.003054231,,,1061
1.062,3.63739669,0.003042996,,,1062
1.063,3.6370814,0.003031817,,,1063
1.064,3.63676706,0.003020696,,,1064
1.065,3.63645367,0.003009631,,,1065
1.066,3.63614122,0.002998622,,,1066
1.067,3.63582971,0.00298767,,,1067
1.068,3.63551913,0.002976773,,,1068
1.069,3.63520949,0.002965931,,,1069
1.07,3.63490078,0.002955145,,,1070
1.071,3.63459299,0.002944414,,,1071
1.072,3.63428613,0.002933738,,,1072
1.073,3.63398018,0.002923116,,,1073
1.074,3.63367515,0.002912549,,,1074
1.075,3.63337103,0.002902035,,,1075
1.076,3.63306781,0.002891574,,,1076
1.077,3.63276552,0.002881166,,,1077
1.078,3.63246417,0.00287081,,,1078
1.079,3.63216378,0.002860506,,,1079
1.08,3.63186433,0.002850255,,,1080
1.081,3.63156583,0.002840056,,,1081
1.082,3.63126827,0.002829909,,,1082
1.083,3.63097164,0.002819814,,,1083
1.084,3.63067595,0.00280977,,,1084
1.085,3.63038119,0.002799777,,,1085
1.086,3.63008735,0.002789835,,,1086
1.087,3.62979444,0.002779944,,,1087
1.088,3.62950244,0.002770103,,,1088
1.089,3.62921136,0.002760312,,,1089
1.09,3.6289212,0.002750572,,,1090
1.091,3.62863194,0.002740882,,,1091
1.092,3.62834358,0.002731241,,,1092
1.093,3.62805613,0.00272165,,,1093
1.094,3.62776958,0.002712107,,,1094
1.095,3.62748392,0.002702614,,,1095
1.096,3.62719915,0.00269317,,,1096
1.097,3.62691528,0.002683774,,,1097
1.098,3.6266323,0.002674427,,,1098
1.099,3.62635021,0.002665126,,,1099
1.1,3.62606899,0.002655871,,,1100
1.101,3.62578865,0.002646662,,,1101
1.102,3.62550918,0.002637499,,,1102
1.103,3.62523057,0.002628382,,,1103
1.104,3.62495283,0.002619311,,,1104
1.105,3.62467596,0.002610284,,,1105
1.106,3.62439994,0.002601303,,,1106
1.107,3.62412477,0.002592367,,,1107
1.108,3.62385046,0.002583475,,,1108
1.109,3.62357699,0.002574628,,,1109
1.11,3.62330437,0.002565826,,,1110
1.111,3.62303259,0.002557067,,,1111
1.112,3.62276165,0.002548353,,,1112
1.113,3.62249155,0.002539682,,,1113
1.114,3.62222228,0.002531055,,,1114
1.115,3.62195383,0.002522471,,,1115
1.116,3.62168622,0.002513931,,,1116
1.117,3.62141943,0.002505433,,,1117
1.118,3.62115345,0.002496979,,,1118
1.119,3.6208883,0.002488567,,,1119
1.12,3.62062396,0.002480197,,,1120
1.121,3.62036042,0.002471869,,,1121
1.122,3.62009763,0.002463579,,,1122
1.123,3.61983557,0.002455328,,,1123
1.124,3.61957425,0.002447115,,,1124
1.125,3.61931365,0.002438939,,,1125
1.126,3.61905378,0.002430801,,,1126
1.127,3.61879464,0.002422701,,,1127
1.128,3.61853621,0.002414637,,,1128
1.129,3.61827851,0.002406611,,,1129
1.13,3.61802152,0.002398623,,,1130
1.131,3.61776524,0.00239067,,,1131
1.132,3.61750968,0.002382755,,,1132
1.133,3.61725482,0.002374876,,,1133
1.134,3.61700067,0.002367034,,,1134
1.135,3.61674723,0.002359228,,,1135
1.136,3.61649448,0.002351458,,,1136
1.137,3.61624243,0.002343724,,,1137
1.138,3.61599108,0.002336026,,,1138
1.139,3.61574043,0.002328363,,,1139
1.14,3.61549046,0.002320736,,,1140
1.141,3.61524119,0.002313145,,,1141
1.142,3.6149926,0.002305588,,,1142
1.143,3.61474471,0.002298067,,,1143
1.144,3.61449752,0.002290581,,,1144
1.145,3.61425104,0.00228313,,,1145
1.146,3.61400528,0.002275714,,,1146
1.147,3.61376025,0.002268333,,,1147
1.148,3.61351597,0.002260987,,,1148
1.149,3.61327244,0.002253677,,,1149
1.15,3.61302965,0.002246402,,,1150
1.151,3.61278759,0.002239161,,,1151
1.152,3.61254627,0.002231956,,,1152
1.153,3.61230569,0.002224784,,,1153
1.154,3.61206583,0.002217648,,,1154
1.155,3.6118267,0.002210546,,,1155
1.156,3.61158829,0.002203477,,,1156
1.157,3.61135061,0.002196443,,,1157
1.158,3.61111365,0.002189443,,,1158
1.159,3.6108774,0.002182477,,,1159
1.16,3.61064187,0.002175544,,,1160
1.161,3.61040705,0.002168645,,,1161
1.162,3.61017294,0.002161779,,,1162
1.163,3.60993953,0.002154946,,,1163
1.164,3.60970683,0.002148147,,,1164
1.165,3.60947483,0.00214138,,,1165
1.166,3.60924353,0.002134646,,,1166
1.167,3.60901288,0.002127943,,,1167
1.168,3.60878289,0.002121271,,,1168
1.169,3.60855355,0.00211463,,,1169
1.17,3.60832485,0.002108019,,,1170
1.171,3.6080968,0.002101439,,,1171
1.172,3.60786938,0.002094889,,,1172
1.173,3.60764258,0.002088368,,,1173
1.174,3.60741639,0.002081875,,,1174
1.175,3.60719081,0.002075411,,,1175
1.176,3.60696583,0.002068974,,,1176
1.177,3.60674146,0.002062566,,,1177
1.178,3.60651769,0.002056187,,,1178
1.179,3.60629452,0.002049835,,,1179
1.18,3.60607194,0.00204351,,,1180
1.181,3.60584997,0.002037214,,,1181
1.182,3.60562858,0.002030945,,,1182
1.183,3.60540779,0.002024704,,,1183
1.184,3.60518758,0.00201849,,,1184
1.185,3.60496797,0.002012304,,,1185
1.186,3.60474894,0.002006144,,,1186
1.187,3.60453049,0.002000012,,,1187
1.188,3.60431263,0.001993907,,,1188
1.189,3.60409534,0.001987828,,,1189
1.19,3.60387863,0.001981777,,,1190
1.191,3.60366251,0.001975752,,,1191
1.192,3.603447,0.001969754,,,1192
1.193,3.60323209,0.001963783,,,1193
1.194,3.60301777,0.001957838,,,1194
1.195,3.60280406,0.001951921,,,1195
1.196,3.60259094,0.00194603,,,1196
1.197,3.60237842,0.001940165,,,1197
1.198,3.60216648,0.001934326,,,1198
1.199,3.60195514,0.001928514,,,1199
1.2,3.6017444,0.001922728,,,1200
1.201,3.60153425,0.001916967,,,1201
1.202,3.60132469,0.001911232,,,1202
1.203,3.60111572,0.001905523,,,1203
1.204,3.60090734,0.001899839,,,1204
1.205,3.60069955,0.00189418,,,1205
1.206,3.60049235,0.001888546,,,1206
1.207,3.60028572,0.001882938,,,1207
1.208,3.60007968,0.001877355,,,1208
1.209,3.59987421,0.001871796,,,1209
1.21,3.59966933,0.001866262,,,1210
1.211,3.59946501,0.001860754,,,1211
1.212,3.59926127,0.001855269,,,1212
1.213,3.5990581,0.00184981,,,1213
1.214,3.5988555,0.001844374,,,1214
1.215,3.59865347,0.001838964,,,1215
1.216,3.598452,0.001833577,,,1216
1.217,3.59825108,0.001828214,,,1217
1.218,3.5980507,0.001822874,,,1218
1.219,3.59785086,0.001817557,,,1219
1.22,3.59765157,0.001812263,,,1220
1.221,3.59745281,0.001806992,,,1221
1.222,3.59725459,0.001801744,,,1222
1.223,3.59705691,0.001796518,,,1223
1.224,3.59685975,0.001791316,,,1224
1.225,3.59666313,0.001786135,,,1225
1.226,3.59646704,0.001780978,,,1226
1.227,3.59627147,0.001775842,,,1227
1.228,3.59607643,0.001770729,,,1228
1.229,3.5958819,0.001765637,,,1229
1.23,3.59568789,0.001760567,,,1230
1.231,3.59549439,0.001755518,,,1231
1.232,3.5953014,0.00175049,,,1232
1.233,3.59510892,0.001745483,,,1233
1.234,3.59491696,0.001740497,,,1234
1.235,3.59472549,0.001735533,,,1235
1.236,3.59453453,0.001730589,,,1236
1.237,3.59434408,0.001725666,,,1237
1.238,3.59415413,0.001720764,,,1238
1.239,3.59396467,0.001715883,,,1239
1.24,3.59377572,0.001711022,,,1240
1.241,3.59358726,0.001706182,,,1241
1.242,3.5933993,0.001701362,,,1242
1.243,3.59321183,0.001696562,,,1243
1.244,3.59302485,0.001691783,,,1244
1.245,3.59283838,0.001687024,,,1245
1.246,3.59265239,0.001682284,,,1246
1.247,3.5924669,0.001677565,,,1247
1.248,3.5922819,0.001672865,,,1248
1.249,3.59209739,0.001668185,,,1249
1.25,3.59191337,0.001663525,,,1250
1.251,3.59172983,0.001658884,,,1251
1.252,3.59154677,0.001654263,,,1252
1.253,3.5913642,0.001649661,,,1253
1.254,3.59118211,0.001645079,,,1254
1.255,3.5910005,0.001640516,,,1255
1.256,3.59081937,0.001635972,,,1256
1.257,3.59063871,0.001631447,,,1257
1.258,3.59045852,0.001626941,,,1258
1.259,3.59027879,0.001622454,,,1259
1.26,3.59009953,0.001617984,,,1260
1.261,3.58992071,0.001613533,,,1261
1.262,3.58974236,0.0016091,,,1262
1.263,3.58956446,0.001604685,,,1263
1.264,3.58938702,0.001600287,,,1264
1.265,3.58921002,0.001595908,,,1265
1.266,3.58903348,0.001591546,,,1266
1.267,3.58885739,0.001587203,,,1267
1.268,3.58868174,0.001582876,,,1268
1.269,3.58850654,0.001578568,,,1269
1.27,3.58833179,0.001574277,,,1270
1.271,3.58815747,0.001570003,,,1271
1.272,3.5879836,0.001565747,,,1272
1.273,3.58781016,0.001561507,,,1273
1.274,3.58763716,0.001557284,,,1274
1.275,3.58746458,0.001553079,,,1275
1.276,3.58729244,0.001548889,,,1276
1.277,3.58712074,0.001544717,,,1277
1.278,3.58694946,0.001540561,,,1278
1.279,3.5867786,0.001536422,,,1279
1.28,3.58660818,0.001532299,,,1280
1.281,3.58643818,0.001528193,,,1281
1.282,3.5862686,0.001524103,,,1282
1.283,3.58609945,0.001520029,,,1283
1.284,3.58593072,0.001515972,,,1284
1.285,3.5857624,0.001511931,,,1285
1.286,3.58559451,0.001507906,,,1286
1.287,3.58542703,0.001503897,,,1287
1.288,3.58525997,0.001499904,,,1288
1.289,3.58509332,0.001495928,,,1289
1.29,3.5849271,0.001491967,,,1290
1.291,3.58476131,0.001488022,,,1291
1.292,3.58459594,0.001484093,,,1292
1.293,3.584431,0.001480179,,,1293
1.294,3.58426648,0.001476281,,,1294
1.295,3.58410238,0.001472399,,,1295
1.296,3.58393869,0.001468532,,,1296
1.297,3.58377543,0.001464681,,,1297
1.298,3.58361259,0.001460845,,,1298
1.299,3.58345016,0.001457025,,,1299
1.3,3.58328814,0.00145322,,,1300
1.301,3.58312653,0.00144943,,,1301
1.302,3.58296532,0.001445654,,,1302
1.303,3.58280451,0.001441894,,,1303
1.304,3.58264411,0.001438148,,,1304
1.305,3.5824841,0.001434417,,,1305
1.306,3.5823245,0.0014307,,,1306
1.307,3.58216529,0.001426998,,,1307
1.308,3.58200648,0.00142331,,,1308
1.309,3.58184807,0.001419637,,,1309
1.31,3.58169004,0.001415978,,,1310
1.311,3.58153242,0.001412334,,,1311
1.312,3.58137518,0.001408704,,,1312
1.313,3.58121833,0.001405088,,,1313
1.314,3.58106187,0.001401486,,,1314
1.315,3.5809058,0.001397899,,,1315
1.316,3.58075012,0.001394325,,,1316
1.317,3.58059482,0.001390766,,,1317
1.318,3.58043991,0.001387221,,,1318
1.319,3.58028538,0.001383689,,,1319
1.32,3.58013123,0.001380172,,,1320
1.321,3.57997746,0.001376668,,,1321
1.322,3.57982407,0.001373178,,,1322
1.323,3.57967104,0.001369701,,,1323
1.324,3.57951838,0.001366238,,,1324
1.325,3.57936608,0.001362787,,,1325
1.326,3.57921414,0.001359349,,,1326
1.327,3.57906256,0.001355924,,,1327
1.328,3.57891134,0.001352512,,,1328
1.329,3.57876047,0.001349113,,,1329
1.33,3.57860996,0.001345726,,,1330
1.331,3.57845981,0.001342353,,,1331
1.332,3.57831003,0.001338992,,,1332
1.333,3.5781606,0.001335643,,,1333
1.334,3.57801154,0.001332307,,,1334
1.335,3.57786284,0.001328984,,,1335
1.336,3.57771449,0.001325673,,,1336
1.337,3.5775665,0.001322374,,,1337
1.338,3.57741887,0.001319088,,,1338
1.339,3.5772716,0.001315814,,,1339
1.34,3.57712467,0.001312553,,,1340
1.341,3.5769781,0.001309304,,,1341
1.342,3.57683189,0.001306066,,,1342
1.343,3.57668602,0.001302842,,,1343
1.344,3.5765405,0.001299629,,,1344
1.345,3.57639534,0.001296428,,,1345
1.346,3.57625052,0.00129324,,,1346
1.347,3.57610604,0.001290063,,,1347
1.348,3.57596192,0.001286898,,,1348
1.349,3.57581813,0.001283746,,,1349
1.35,3.57567469,0.001280605,,,1350
1.351,3.5755316,0.001277476,,,1351
1.352,3.57538884,0.001274359,,,1352
1.353,3.57524643,0.001271253,,,1353
1.354,3.57510435,0.001268159,,,1354
1.355,3.57496261,0.001265077,,,1355
1.356,3.57482121,0.001262007,,,1356
1.357,3.57468015,0.001258948,,,1357
1.358,3.57453944,0.001255901,,,1358
1.359,3.57439907,0.001252865,,,1359
1.36,3.57425905,0.001249841,,,1360
1.361,3.57411938,0.001246828,,,1361
1.362,3.57398005,0.001243827,,,1362
1.363,3.57384105,0.001240836,,,1363
1.364,3.57370239,0.001237857,,,1364
1.365,3.57356406,0.001234889,,,1365
1.366,3.57342607,0.001231931,,,1366
1.367,3.5732884,0.001228984,,,1367
1.368,3.57315106,0.001226049,,,1368
1.369,3.57301405,0.001223124,,,1369
1.37,3.57287737,0.001220209,,,1370
1.371,3.57274101,0.001217306,,,1371
1.372,3.57260498,0.001214413,,,1372
1.373,3.57246927,0.001211531,,,1373
1.374,3.57233389,0.001208659,,,1374
1.375,3.57219883,0.001205798,,,1375
1.376,3.57206409,0.001202947,,,1376
1.377,3.57192967,0.001200107,,,1377
1.378,3.57179557,0.001197278,,,1378
1.379,3.57166178,0.001194459,,,1379
1.38,3.57152832,0.00119165,,,1380
1.381,3.57139517,0.001188851,,,1381
1.382,3.57126234,0.001186063,,,1382
1.383,3.57112982,0.001183285,,,1383
1.384,3.57099762,0.001180518,,,1384
1.385,3.57086573,0.001177761,,,1385
1.386,3.57073415,0.001175013,,,1386
1.387,3.57060288,0.001172276,,,1387
1.388,3.57047193,0.001169549,,,1388
1.389,3.57034128,0.001166833,,,1389
1.39,3.57021094,0.001164126,,,1390
1.391,3.57008091,0.001161429,,,1391
1.392,3.56995118,0.001158742,,,1392
1.393,3.56982176,0.001156065,,,1393
1.394,3.56969264,0.001153398,,,1394
1.395,3.56956381,0.001150741,,,1395
1.396,3.56943527,0.001148092,,,1396
1.397,3.56930702,0.001145453,,,1397
1.398,3.56917907,0.001142823,,,1398
1.399,3.5690514,0.001140202,,,1399
1.4,3.56892403,0.00113759,,,1400
1.401,3.56879695,0.001134987,,,1401
1.402,3.56867016,0.001132393,,,1402
1.403,3.56854365,0.001129808,,,1403
1.404,3.56841743,0.001127232,,,1404
1.405,3.5682915,0.001124665,,,1405
1.406,3.56816586,0.001122107,,,1406
1.407,3.5680405,0.001119558,,,1407
1.408,3.56791542,0.001117018,,,1408
1.409,3.56779063,0.001114486,,,1409
1.41,3.56766612,0.001111964,,,1410
1.411,3.5675419,0.00110945,,,1411
1.412,3.56741795,0.001106945,,,1412
1.413,3.56729428,0.001104449,,,1413
1.414,3.5671709,0.001101961,,,1414
1.415,3.56704779,0.001099482,,,1415
1.416,3.56692496,0.001097011,,,1416
1.417,3.5668024,0.00109455,,,1417
1.418,3.56668012,0.001092096,,,1418
1.419,3.56655812,0.001089652,,,1419
1.42,3.5664364,0.001087216,,,1420
1.421,3.56631494,0.001084788,,,1421
1.422,3.56619376,0.001082369,,,1422
1.423,3.56607285,0.001079958,,,1423
1.424,3.56595221,0.001077556,,,1424
1.425,3.56583185,0.001075162,,,1425
1.426,3.56571175,0.001072776,,,1426
1.427,3.56559192,0.001070399,,,1427
1.428,3.56547237,0.00106803,,,1428
1.429,3.56535307,0.001065669,,,1429
1.43,3.56523405,0.001063316,,,1430
1.431,3.56511528,0.001060972,,,1431
1.432,3.56499677,0.001058635,,,1432
1.433,3.56487851,0.001056306,,,1433
1.434,3.56476051,0.001053985,,,1434
1.435,3.56464277,0.001051672,,,1435
1.436,3.56452529,0.001049366,,,1436
1.437,3.56440806,0.001047068,,,1437
1.438,3.56429109,0.001044778,,,1438
1.439,3.56417438,0.001042495,,,1439
1.44,3.56405792,0.00104022,,,1440
1.441,3.56394172,0.001037953,,,1441
1.442,3.56382577,0.001035693,,,1442
1.443,3.56371008,0.001033441,,,1443
1.444,3.56359463,0.001031196,,,1444
1.445,3.56347944,0.001028959,,,1445
1.446,3.5633645,0.001026729,,,1446
1.447,3.56324981,0.001024507,,,1447
1.448,3.56313537,0.001022292,,,1448
1.449,3.56302118,0.001020085,,,1449
1.45,3.56290724,0.001017885,,,1450
1.451,3.56279354,0.001015692,,,1451
1.452,3.5626801,0.001013507,,,1452
1.453,3.5625669,0.001011329,,,1453
1.454,3.56245394,0.001009159,,,1454
1.455,3.56234123,0.001006995,,,1455
1.456,3.56222876,0.001004839,,,1456
1.457,3.56211654,0.00100269,,,1457
1.458,3.56200456,0.001000548,,,1458
1.459,3.56189282,0.000998414,,,1459
1.46,3.56178132,0.000996286,,,1460
1.461,3.56167007,0.000994166,,,1461
1.462,3.56155905,0.000992053,,,1462
1.463,3.56144827,0.000989947,,,1463
1.464,3.56133774,0.000987848,,,1464
1.465,3.56122744,0.000985756,,,1465
1.466,3.56111737,0.000983671,,,1466
1.467,3.56100755,0.000981593,,,1467
1.468,3.56089797,0.000979522,,,1468
1.469,3.56078862,0.000977458,,,1469
1.47,3.56067952,0.000975401,,,1470
1.471,3.56057066,0.000973351,,,1471
1.472,3.56046204,0.000971308,,,1472
1.473,3.56035365,0.000969271,,,1473
1.474,3.5602455,0.000967241,,,1474
1.475,3.56013759,0.000965218,,,1475
1.476,3.56002992,0.000963202,,,1476
1.477,3.55992248,0.000961192,,,1477
1.478,3.55981527,0.000959189,,,1478
1.479,3.55970831,0.000957192,,,1479
1.48,3.55960157,0.000955202,,,1480
1.481,3.55949507,0.000953219,,,1481
1.482,3.5593888,0.000951241,,,1482
1.483,3.55928276,0.000949271,,,1483
1.484,3.55917695,0.000947306,,,1484
1.485,3.55907138,0.000945348,,,1485
1.486,3.55896603,0.000943397,,,1486
1.487,3.55886091,0.000941452,,,1487
1.488,3.55875602,0.000939513,,,1488
1.489,3.55865136,0.000937581,,,1489
1.49,3.55854693,0.000935655,,,1490
1.491,3.55844273,0.000933735,,,1491
1.492,3.55833875,0.000931821,,,1492
1.493,3.55823499,0.000929914,,,1493
1.494,3.55813146,0.000928013,,,1494
1.495,3.55802816,0.000926118,,,1495
1.496,3.55792507,0.00092423,,,1496
1.497,3.55782222,0.000922347,,,1497
1.498,3.55771958,0.000920471,,,1498
1.499,3.55761717,0.000918601,,,1499
1.5,3.55751497,0.000916737,,,1500
1.501,3.557413,0.000914879,,,1501
1.502,3.55731125,0.000913027,,,1502
1.503,3.55720972,0.000911182,,,1503
1.504,3.5571084,0.000909342,,,1504
1.505,3.55700731,0.000907508,,,1505
1.506,3.55690643,0.000905681,,,1506
1.507,3.55680577,0.000903859,,,1507
1.508,3.55670533,0.000902043,,,1508
1.509,3.5566051,0.000900233,,,1509
1.51,3.55650509,0.000898429,,,1510
1.511,3.55640529,0.00089663,,,1511
1.512,3.55630571,0.000894837,,,1512
1.513,3.55620634,0.00089305,,,1513
1.514,3.55610718,0.000891269,,,1514
1.515,3.55600824,0.000889494,,,1515
1.516,3.55590951,0.000887724,,,1516
1.517,3.55581099,0.00088596,,,1517
1.518,3.55571268,0.000884202,,,1518
1.519,3.55561458,0.000882449,,,1519
1.52,3.55551668,0.000880701,,,1520
1.521,3.55541899,0.000878959,,,1521
1.522,3.5553215,0.000877223,,,1522
1.523,3.55522421,0.000875492,,,1523
1.524,3.55512713,0.000873766,,,1524
1.525,3.55503025,0.000872046,,,1525
1.526,3.55493358,0.000870331,,,1526
1.527,3.5548371,0.000868621,,,1527
1.528,3.55474082,0.000866917,,,1528
1.529,3.55464475,0.000865218,,,1529
1.53,3.55454887,0.000863524,,,1530
1.531,3.5544532,0.000861836,,,1531
1.532,3.55435772,0.000860153,,,1532
1.533,3.55426244,0.000858475,,,1533
1.534,3.55416736,0.000856802,,,1534
1.535,3.55407248,0.000855135,,,1535
1.536,3.55397779,0.000853473,,,1536
1.537,3.5538833,0.000851816,,,1537
1.538,3.55378901,0.000850164,,,1538
1.539,3.55369491,0.000848517,,,1539
1.54,3.553601,0.000846876,,,1540
1.541,3.55350729,0.000845239,,,1541
1.542,3.55341377,0.000843608,,,1542
1.543,3.55332045,0.000841982,,,1543
1.544,3.55322732,0.000840361,,,1544
1.545,3.55313438,0.000838745,,,1545
1.546,3.55304163,0.000837134,,,1546
1.547,3.55294907,0.000835528,,,1547
1.548,3.55285669,0.000833927,,,1548
1.549,3.55276451,0.00083233,,,1549
1.55,3.55267251,0.000830739,,,1550
1.551,3.55258069,0.000829153,,,1551
1.552,3.55248906,0.000827571,,,1552
1.553,3.55239761,0.000825994,,,1553
1.554,3.55230635,0.000824422,,,1554
1.555,3.55221528,0.000822855,,,1555
1.556,3.55212438,0.000821293,,,1556
1.557,3.55203367,0.000819735,,,1557
1.558,3.55194314,0.000818183,,,1558
1.559,3.55185279,0.000816635,,,1559
1.56,3.55176263,0.000815091,,,1560
1.561,3.55167264,0.000813553,,,1561
1.562,3.55158284,0.000812019,,,1562
1.563,3.55149321,0.00081049,,,1563
1.564,3.55140376,0.000808965,,,1564
1.565,3.5513145,0.000807446,,,1565
1.566,3.55122541,0.00080593,,,1566
1.567,3.5511365,0.000804419,,,1567
1.568,3.55104776,0.000802913,,,1568
1.569,3.5509592,0.00080141,,,1569
1.57,3.55087082,0.000799913,,,1570
1.571,3.55078261,0.000798419,,,1571
1.572,3.55069458,0.00079693,,,1572
1.573,3.55060672,0.000795446,,,1573
1.574,3.55051904,0.000793965,,,1574
1.575,3.55043153,0.000792489,,,1575
1.576,3.55034419,0.000791018,,,1576
1.577,3.55025702,0.00078955,,,1577
1.578,3.55017003,0.000788087,,,1578
1.579,3.55008321,0.000786629,,,1579
1.58,3.54999656,0.000785174,,,1580
1.581,3.54991009,0.000783724,,,1581
1.582,3.54982378,0.000782278,,,1582
1.583,3.54973764,0.000780836,,,1583
1.584,3.54965168,0.000779399,,,1584
1.585,3.54956588,0.000777965,,,1585
1.586,3.54948025,0.000776536,,,1586
1.587,3.54939479,0.000775111,,,1587
1.588,3.5493095,0.000773691,,,1588
1.589,3.54922437,0.000772274,,,1589
1.59,3.54913941,0.000770861,,,1590
1.591,3.54905462,0.000769453,,,1591
1.592,3.54896999,0.000768048,,,1592
1.593,3.54888553,0.000766647,,,1593
1.594,3.54880124,0.000765251,,,1594
1.595,3.54871711,0.000763858,,,1595
1.596,3.54863314,0.000762469,,,1596
1.597,3.54854934,0.000761085,,,1597
1.598,3.5484657,0.000759704,,,1598
1.599,3.54838223,0.000758327,,,1599
1.6,3.54829891,0.000756954,,,1600
1.601,3.54821576,0.000755585,,,1601
1.602,3.54813278,0.000754219,,,1602
1.603,3.54804995,0.000752858,,,1603
1.604,3.54796728,0.0007515,,,1604
1.605,3.54788478,0.000750147,,,1605
1.606,3.54780243,0.000748797,,,1606
1.607,3.54772025,0.000747451,,,1607
1.608,3.54763822,0.000746109,,,1608
1.609,3.54755635,0.00074477,,,1609
1.61,3.54747465,0.000743435,,,1610
1.611,3.5473931,0.000742105,,,1611
1.612,3.5473117,0.000740778,,,1612
1.613,3.54723047,0.000739454,,,1613
1.614,3.54714939,0.000738135,,,1614
1.615,3.54706848,0.000736819,,,1615
1.616,3.54698773,0.000735507,,,1616
1.617,3.54690714,0.0007342,,,1617
1.618,3.54682671,0.000732896,,,1618
1.619,3.54674645,0.000731596,,,1619
1.62,3.54666635,0.0007303,,,1620
1.621,3.54658641,0.000729008,,,1621
1.622,3.54650663,0.00072772,,,1622
1.623,3.54642701,0.000726435,,,1623
1.624,3.54634755,0.000725155,,,1624
1.625,3.54626825,0.000723878,,,1625
1.626,3.54618911,0.000722605,,,1626
1.627,3.54611013,0.000721336,,,1627
1.628,3.5460313,0.000720071,,,1628
1.629,3.54595264,0.000718809,,,1629
1.63,3.54587413,0.000717552,,,1630
1.631,3.54579578,0.000716298,,,1631
1.632,3.54571758,0.000715048,,,1632
1.633,3.54563954,0.000713802,,,1633
1.634,3.54556166,0.000712559,,,1634
1.635,3.54548394,0.00071132,,,1635
1.636,3.54540638,0.000710085,,,1636
1.637,3.54532898,0.000708854,,,1637
1.638,3.54525173,0.000707627,,,1638
1.639,3.54517465,0.000706404,,,1639
1.64,3.54509773,0.000705184,,,1640
1.641,3.54502096,0.000703968,,,1641
1.642,3.54494435,0.000702756,,,1642
1.643,3.5448679,0.000701548,,,1643
1.644,3.5447916,0.000700343,,,1644
1.645,3.54471546,0.000699143,,,1645
1.646,3.54463948,0.000697946,,,1646
1.647,3.54456366,0.000696752,,,1647
1.648,3.54448799,0.000695563,,,1648
1.649,3.54441247,0.000694377,,,1649
1.65,3.54433711,0.000693195,,,1650
1.651,3.5442619,0.000692016,,,1651
1.652,3.54418685,0.000690842,,,1652
1.653,3.54411195,0.000689671,,,1653
1.654,3.5440372,0.000688503,,,1654
1.655,3.54396261,0.000687339,,,1655
1.656,3.54388816,0.000686179,,,1656
1.657,3.54381387,0.000685023,,,1657
1.658,3.54373973,0.00068387,,,1658
1.659,3.54366575,0.00068272,,,1659
1.66,3.54359191,0.000681575,,,1660
1.661,3.54351822,0.000680432,,,1661
1.662,3.54344469,0.000679294,,,1662
1.663,3.5433713,0.000678159,,,1663
1.664,3.54329806,0.000677027,,,1664
1.665,3.54322497,0.000675899,,,1665
1.666,3.54315203,0.000674775,,,1666
1.667,3.54307923,0.000673654,,,1667
1.668,3.54300655,0.000672535,,,1668
1.669,3.54293397,0.000671418,,,1669
1.67,3.54286152,0.000670304,,,1670
1.671,3.54278917,0.000669191,,,1671
1.672,3.54271693,0.000668081,,,1672
1.673,3.54264481,0.000666973,,,1673
1.674,3.5425728,0.000665867,,,1674
1.675,3.5425009,0.000664763,,,1675
1.676,3.54242911,0.000663661,,,1676
1.677,3.54235743,0.000662562,,,1677
1.678,3.54228587,0.000661464,,,1678
1.679,3.54221441,0.000660369,,,1679
1.68,3.54214306,0.000659276,,,1680
1.681,3.54207182,0.000658185,,,1681
1.682,3.54200069,0.000657095,,,1682
1.683,3.54192964,0.000656007,,,1683
1.684,3.54185867,0.00065492,,,1684
1.685,3.54178778,0.000653835,,,1685
1.686,3.54171697,0.00065275,,,1686
1.687,3.54164625,0.000651667,,,1687
1.688,3.54157561,0.000650586,,,1688
1.689,3.54150506,0.000649505,,,1689
1.69,3.54143458,0.000648426,,,1690
1.691,3.54136419,0.000647348,,,1691
1.692,3.54129388,0.000646271,,,1692
1.693,3.54122365,0.000645195,,,1693
1.694,3.5411535,0.000644121,,,1694
1.695,3.54108343,0.000643047,,,1695
1.696,3.54101345,0.000641975,,,1696
1.697,3.54094354,0.000640905,,,1697
1.698,3.54087372,0.000639835,,,1698
