nm,n,k ,,,nm
0.191,0.738695002,2.58903345,,,191
0.192,0.764213819,2.61404977,,,192
0.193,0.789287543,2.63860693,,,193
0.194,0.814190465,2.6625592,,,194
0.195,0.839017863,2.6859042,,,195
0.196,0.863925161,2.70841743,,,196
0.197,0.888884732,2.73010529,,,197
0.198,0.913776097,2.75117215,,,198
0.199,0.938705938,2.77131869,,,199
0.2,0.963569577,2.79079255,,,200
0.201,0.988339476,2.80955423,,,201
0.202,1.0129845,2.8276343,,,202
0.203,1.03752276,2.84501829,,,203
0.204,1.06183065,2.86162587,,,204
0.205,1.08594263,2.87770806,,,205
0.206,1.10985358,2.89309792,,,206
0.207,1.13354248,2.90785743,,,207
0.208,1.15703756,2.92216924,,,208
0.209,1.18022513,2.93581818,,,209
0.21,1.20311196,2.94896451,,,210
0.211,1.22568551,2.9616354,,,211
0.212,1.24786754,2.97373169,,,212
0.213,1.26971469,2.9854588,,,213
0.214,1.29113249,2.99669195,,,214
0.215,1.31213978,3.00754086,,,215
0.216,1.33270067,3.01801406,,,216
0.217,1.35275724,3.02812311,,,217
0.218,1.3722677,3.03789492,,,218
0.219,1.39132007,3.04742621,,,219
0.22,1.40990715,3.05674433,,,220
0.221,1.4279433,3.06587483,,,221
0.222,1.44543099,3.07485333,,,222
0.223,1.46231273,3.08372575,,,223
0.224,1.47865169,3.09254008,,,224
0.225,1.4943392,3.10135313,,,225
0.226,1.50944425,3.11020468,,,226
0.227,1.52388743,3.11916925,,,227
0.228,1.53773654,3.12829106,,,228
0.229,1.5508889,3.13755576,,,229
0.23,1.5634257,3.14718746,,,230
0.231,1.57543435,3.1571617,,,231
0.232,1.58678659,3.16760241,,,232
0.233,1.59758819,3.17853862,,,233
0.234,1.60783855,3.19001875,,,234
0.235,1.61754227,3.20219485,,,235
0.236,1.62678286,3.21506887,,,236
0.237,1.63558906,3.22873915,,,237
0.238,1.64397131,3.24326161,,,238
0.239,1.65204255,3.25867224,,,239
0.24,1.65990267,3.27514284,,,240
0.241,1.66761518,3.29274474,,,241
0.242,1.67526367,3.31146938,,,242
0.243,1.68294386,3.33136132,,,243
0.244,1.69075368,3.35247937,,,244
0.245,1.698811,3.37485873,,,245
0.246,1.70721625,3.39845699,,,246
0.247,1.71603973,3.42318346,,,247
0.248,1.72553614,3.44941351,,,248
0.249,1.73578024,3.47694265,,,249
0.25,1.74684968,3.50569243,,,250
0.251,1.7588745,3.5356578,,,251
0.252,1.77195361,3.56677542,,,252
0.253,1.7861525,3.59897972,,,253
0.254,1.80163256,3.63215837,,,254
0.255,1.81839964,3.66626051,,,255
0.256,1.83658525,3.7013609,,,256
0.257,1.85627059,3.73738179,,,257
0.258,1.87745093,3.7741692,,,258
0.259,1.90013473,3.81168313,,,259
0.26,1.92445443,3.84995426,,,260
0.261,1.95023262,3.88884644,,,261
0.262,1.97753379,3.92833809,,,262
0.263,2.00653982,3.96856796,,,263
0.264,2.0372973,4.00977606,,,264
0.265,2.06991515,4.05194651,,,265
0.266,2.10465833,4.09521479,,,266
0.267,2.14177374,4.13968135,,,267
0.268,2.18145937,4.18534524,,,268
0.269,2.22401193,4.23218338,,,269
0.27,2.2702353,4.28013472,,,270
0.271,2.32082301,4.32909077,,,271
0.272,2.3762645,4.37884739,,,272
0.273,2.43686804,4.42875697,,,273
0.274,2.50348031,4.47812343,,,274
0.275,2.57679163,4.52608876,,,275
0.276,2.65667434,4.57122891,,,276
0.277,2.74313647,4.61250337,,,277
0.278,2.83609693,4.64905465,,,278
0.279,2.93539973,4.67966564,,,279
0.28,3.03999642,4.70287235,,,280
0.281,3.1489617,4.71786373,,,281
0.282,3.26116715,4.72373907,,,282
0.283,3.37468373,4.71934572,,,283
0.284,3.48855487,4.70459775,,,284
0.285,3.60175898,4.67964963,,,285
0.286,3.71194159,4.6447322,,,286
0.287,3.81790405,4.60036342,,,287
0.288,3.91832836,4.54726949,,,288
0.289,4.01155813,4.48690443,,,289
0.29,4.09709009,4.42011233,,,290
0.291,4.17464019,4.3479029,,,291
0.292,4.24354009,4.27194202,,,292
0.293,4.30349186,4.1934479,,,293
0.294,4.35459172,4.11402243,,,294
0.295,4.39717772,4.03498128,,,295
0.296,4.43164687,3.95753595,,,296
0.297,4.45901421,3.88230995,,,297
0.298,4.48002181,3.80992632,,,298
0.299,4.4954729,3.74130209,,,299
0.3,4.50628493,3.67679964,,,300
0.301,4.51335508,3.61669267,,,301
0.302,4.51755831,3.56111777,,,302
0.303,4.51966569,3.50990456,,,303
0.304,4.52040854,3.46264887,,,304
0.305,4.52037941,3.41902166,,,305
0.306,4.52007262,3.37872472,,,306
0.307,4.51980387,3.34143971,,,307
0.308,4.51983508,3.30673747,,,308
0.309,4.52028637,3.27421242,,,309
0.31,4.52126618,3.24343625,,,310
0.311,4.52279409,3.21417123,,,311
0.312,4.52484051,3.18613947,,,312
0.313,4.52733335,3.15915323,,,313
0.314,4.53018467,3.13305772,,,314
0.315,4.5332982,3.10769625,,,315
0.316,4.53660678,3.08293579,,,316
0.317,4.54001206,3.05869101,,,317
0.318,4.54345763,3.03495207,,,318
0.319,4.54685087,3.01173938,,,319
0.32,4.5501609,2.98905227,,,320
0.321,4.55334245,2.96689749,,,321
0.322,4.55638218,2.94527301,,,322
0.323,4.55926222,2.9241853,,,323
0.324,4.56198382,2.90364771,,,324
0.325,4.56456511,2.88371826,,,325
0.326,4.56701834,2.86438593,,,326
0.327,4.56937771,2.84565503,,,327
0.328,4.57165915,2.82753973,,,328
0.329,4.5739135,2.81004007,,,329
0.33,4.57615902,2.79314451,,,330
0.331,4.57844653,2.77689156,,,331
0.332,4.58079931,2.76126102,,,332
0.333,4.5832775,2.74619578,,,333
0.334,4.58589586,2.73169638,,,334
0.335,4.58870172,2.71774782,,,335
0.336,4.59172,2.70430457,,,336
0.337,4.59499215,2.69132074,,,337
0.338,4.59853576,2.67879143,,,338
0.339,4.60237647,2.66666413,,,339
0.34,4.60653995,2.65489036,,,340
0.341,4.61103285,2.6434556,,,341
0.342,4.61587268,2.63231794,,,342
0.343,4.62106555,2.62139955,,,343
0.344,4.62662404,2.61067453,,,344
0.345,4.63254387,2.60013978,,,345
0.346,4.63882574,2.58973827,,,346
0.347,4.64546012,2.57938479,,,347
0.348,4.65244095,2.56905351,,,348
0.349,4.65976437,2.55872188,,,349
0.35,4.66741908,2.54837049,,,350
0.351,4.67537565,2.53793192,,,351
0.352,4.6835988,2.52738273,,,352
0.353,4.69207753,2.51670177,,,353
0.354,4.70080109,2.50585196,,,354
0.355,4.7097525,2.49481936,,,355
0.356,4.71885918,2.48354629,,,356
0.357,4.72810349,2.4720274,,,357
0.358,4.7374563,2.46026148,,,358
0.359,4.74689622,2.44826001,,,359
0.36,4.75639296,2.43599481,,,360
0.361,4.76587399,2.42338724,,,361
0.362,4.77533373,2.41044363,,,362
0.363,4.78469874,2.39723234,,,363
0.364,4.7939469,2.38377968,,,364
0.365,4.80305395,2.37005587,,,365
0.366,4.81197067,2.35600066,,,366
0.367,4.820689,2.3416275,,,367
0.368,4.82908317,2.32704569,,,368
0.369,4.8371221,2.31228858,,,369
0.37,4.84482196,2.29735911,,,370
0.371,4.8521816,2.28225277,,,371
0.372,4.85919293,2.26698269,,,372
0.373,4.86572887,2.25167952,,,373
0.374,4.87172467,2.23640723,,,374
0.375,4.87720231,2.22119128,,,375
0.376,4.88221616,2.20608774,,,376
0.377,4.88678682,2.19111092,,,377
0.378,4.89092991,2.17636627,,,378
0.379,4.89460397,2.16196633,,,379
0.38,4.89782089,2.14794481,,,380
0.381,4.90064447,2.13437637,,,381
0.382,4.9031407,2.12129607,,,382
0.383,4.90539193,2.10877049,,,383
0.384,4.90747915,2.09687064,,,384
0.385,4.90945427,2.08562137,,,385
0.386,4.91143642,2.07499305,,,386
0.387,4.91351837,2.06498585,,,387
0.388,4.9157801,2.05559616,,,388
0.389,4.91832263,2.04680924,,,389
0.39,4.92123244,2.03859806,,,390
0.391,4.92460644,2.03088549,,,391
0.392,4.92850946,2.02359668,,,392
0.393,4.93298754,2.01662595,,,393
0.394,4.93809669,2.00983563,,,394
0.395,4.94384948,2.00317017,,,395
0.396,4.95023714,1.99654626,,,396
0.397,4.95724236,1.98979611,,,397
0.398,4.96485058,1.98287787,,,398
0.399,4.97300409,1.97569059,,,399
0.4,4.98157733,1.96811723,,,400
0.401,4.9905423,1.96014954,,,401
0.402,4.99979075,1.95175652,,,402
0.403,5.00918313,1.94288948,,,403
0.404,5.01870544,1.93355338,,,404
0.405,5.02825619,1.92378826,,,405
0.406,5.03766872,1.91366476,,,406
0.407,5.04693492,1.90319423,,,407
0.408,5.05602512,1.8924659,,,408
0.409,5.06487427,1.88163139,,,409
0.41,5.07348229,1.87070088,,,410
0.411,5.08187743,1.85973434,,,411
0.412,5.09011382,1.84893201,,,412
0.413,5.0981951,1.83831064,,,413
0.414,5.10616069,1.82788887,,,414
0.415,5.11423105,1.81779356,,,415
0.416,5.12243825,1.80804252,,,416
0.417,5.13079433,1.79863026,,,417
0.418,5.13956813,1.78951297,,,418
0.419,5.1488482,1.78067107,,,419
0.42,5.15862612,1.77210227,,,420
0.421,5.16909872,1.7636473,,,421
0.422,5.18041449,1.75515573,,,422
0.423,5.19255829,1.74663335,,,423
0.424,5.20556023,1.73794715,,,424
0.425,5.21948754,1.72873248,,,425
0.426,5.23432897,1.7189676,,,426
0.427,5.2500687,1.70861085,,,427
0.428,5.26660624,1.69731592,,,428
0.429,5.28385394,1.68497772,,,429
0.43,5.30180002,1.67161739,,,430
0.431,5.32027053,1.65703959,,,431
0.432,5.33902229,1.64102517,,,432
0.433,5.35803237,1.62357968,,,433
0.434,5.37721188,1.60465763,,,434
0.435,5.39625039,1.58415995,,,435
0.436,5.41496209,1.56213318,,,436
0.437,5.43334045,1.53860066,,,437
0.438,5.45106936,1.5135369,,,438
0.439,5.46790599,1.48702182,,,439
0.44,5.48381625,1.45909891,,,440
0.441,5.49872908,1.42984922,,,441
0.442,5.51246616,1.39943461,,,442
0.443,5.52490636,1.36805031,,,443
0.444,5.53605487,1.33572483,,,444
0.445,5.54571706,1.30260203,,,445
0.446,5.55381779,1.26880214,,,446
0.447,5.56033107,1.23447138,,,447
0.448,5.56525361,1.19966649,,,448
0.449,5.56850039,1.16460697,,,449
0.45,5.57008194,1.12945001,,,450
0.451,5.57001232,1.09434637,,,451
0.452,5.56832705,1.05943154,,,452
0.453,5.56505997,1.0248661,,,453
0.454,5.56033507,0.990716633,,,454
0.455,5.55424135,0.957030471,,,455
0.456,5.54681342,0.923965633,,,456
0.457,5.53806706,0.89158447,,,457
0.458,5.52808508,0.859970093,,,458
0.459,5.51693313,0.82918076,,,459
0.46,5.50478418,0.79934898,,,460
0.461,5.49167668,0.770495008,,,461
0.462,5.47772119,0.742634667,,,462
0.463,5.46300976,0.715788211,,,463
0.464,5.44766598,0.690022323,,,464
0.465,5.43170134,0.665338196,,,465
0.466,5.41519957,0.641705086,,,466
0.467,5.39827335,0.619099761,,,467
0.468,5.38108621,0.597536606,,,468
0.469,5.36365229,0.577012669,,,469
0.47,5.34600383,0.557511813,,,470
0.471,5.32822478,0.539003306,,,471
0.472,5.31042441,0.521439076,,,472
0.473,5.29261283,0.504809506,,,473
0.474,5.27479961,0.489091699,,,474
0.475,5.257057,0.474200009,,,475
0.476,5.23948885,0.460085611,,,476
0.477,5.22211263,0.4467387,,,477
0.478,5.20492458,0.434155413,,,478
0.479,5.1879479,0.422286973,,,479
0.48,5.17122271,0.411034655,,,480
0.481,5.15475949,0.400364217,,,481
0.482,5.13855441,0.390275077,,,482
0.483,5.12261077,0.380734059,,,483
0.484,5.10696422,0.371665914,,,484
0.485,5.09164052,0.363041075,,,485
0.486,5.07663669,0.354859201,,,486
0.487,5.06194869,0.347114725,,,487
0.488,5.04756125,0.339747661,,,488
0.489,5.033458,0.33268467,,,489
0.49,5.01963593,0.325920795,,,490
0.491,5.0060929,0.319455616,,,491
0.492,4.9928265,0.313274013,,,492
0.493,4.97983947,0.307327724,,,493
0.494,4.96713199,0.301605611,,,494
0.495,4.95470218,0.296107339,,,495
0.496,4.94254713,0.290831432,,,496
0.497,4.93063766,0.285742966,,,497
0.498,4.91894895,0.280805606,,,498
0.499,4.90747904,0.276018144,,,499
0.5,4.89622647,0.271380256,,,500
0.501,4.88518963,0.26688981,,,501
0.502,4.87435656,0.262524675,,,502
0.503,4.86372076,0.258276618,,,503
0.504,4.85328096,0.254145361,,,504
0.505,4.84303586,0.25013061,,,505
0.506,4.8329758,0.246225732,,,506
0.507,4.82307496,0.242410014,,,507
0.508,4.81333049,0.238681429,,,508
0.509,4.80374136,0.235039719,,,509
0.51,4.79430652,0.231484613,,,510
0.511,4.78502152,0.228011996,,,511
0.512,4.77587852,0.22461419,,,512
0.513,4.76687638,0.221290765,,,513
0.514,4.75801415,0.218041473,,,514
0.515,4.7492909,0.214866057,,,515
0.516,4.74069548,0.211758704,,,516
0.517,4.73221352,0.208711756,,,517
0.518,4.72384413,0.205724921,,,518
0.519,4.71558656,0.202797965,,,519
0.52,4.70744003,0.19993065,,,520
0.521,4.69940077,0.19712053,,,521
0.522,4.69146331,0.194364153,,,522
0.523,4.68362683,0.191661214,,,523
0.524,4.67589065,0.189011488,,,524
0.525,4.66825407,0.186414744,,,525
0.526,4.6607134,0.183869017,,,526
0.527,4.65326437,0.181371496,,,527
0.528,4.64590627,0.178921839,,,528
0.529,4.63863848,0.17651983,,,529
0.53,4.63146038,0.17416525,,,530
0.531,4.62436959,0.171856786,,,531
0.532,4.61736102,0.16959101,,,532
0.533,4.61043347,0.167367174,,,533
0.534,4.60358639,0.165185078,,,534
0.535,4.59681923,0.163044519,,,535
0.536,4.5901312,0.160945107,,,536
0.537,4.58351868,0.158884808,,,537
0.538,4.57697826,0.156861911,,,538
0.539,4.57050944,0.154876218,,,539
0.54,4.56411172,0.152927541,,,540
0.541,4.55778448,0.151015601,,,541
0.542,4.5515249,0.149138524,,,542
0.543,4.54533208,0.147294888,,,543
0.544,4.53920564,0.145484385,,,544
0.545,4.53314514,0.143706841,,,545
0.546,4.52715011,0.141962083,,,546
0.547,4.5212196,0.1402495,,,547
0.548,4.51535145,0.138567537,,,548
0.549,4.50954393,0.136915058,,,549
0.55,4.5037966,0.135291885,,,550
0.551,4.49810905,0.13369786,,,551
0.552,4.49248084,0.132132795,,,552
0.553,4.48691107,0.130595892,,,553
0.554,4.48139806,0.129085828,,,554
0.555,4.47594075,0.127601899,,,555
0.556,4.47053877,0.12614396,,,556
0.557,4.46519174,0.124711866,,,557
0.558,4.45989901,0.123305247,,,558
0.559,4.45465888,0.121922823,,,559
0.56,4.44947063,0.12056385,,,560
0.561,4.44433386,0.119228038,,,561
0.562,4.43924822,0.117915255,,,562
0.563,4.43421336,0.116625371,,,563
0.564,4.42922837,0.115357919,,,564
0.565,4.42429132,0.114111834,,,565
0.566,4.41940053,0.112886006,,,566
0.567,4.41455531,0.111680051,,,567
0.568,4.40975536,0.110493853,,,568
0.569,4.40500037,0.109327298,,,569
0.57,4.40029048,0.108180164,,,570
0.571,4.39562628,0.107052089,,,571
0.572,4.39100694,0.105942421,,,572
0.573,4.38643193,0.104850859,,,573
0.574,4.38190097,0.103777297,,,574
0.575,4.37741374,0.10272163,,,575
0.576,4.37296913,0.101683383,,,576
0.577,4.36856463,0.100661465,,,577
0.578,4.36419965,0.099655416,,,578
0.579,4.35987378,0.098664914,,,579
0.58,4.35558674,0.097689868,,,580
0.581,4.35133829,0.096730185,,,581
0.582,4.34712825,0.095785729,,,582
0.583,4.34295687,0.09485615,,,583
0.584,4.33882366,0.093941098,,,584
0.585,4.33472763,0.093039953,,,585
0.586,4.33066851,0.09215261,,,586
0.587,4.32664605,0.091278984,,,587
0.588,4.32265999,0.090418985,,,588
0.589,4.31870959,0.089572107,,,589
0.59,4.31479427,0.088738015,,,590
0.591,4.31091287,0.087916177,,,591
0.592,4.30706482,0.087106357,,,592
0.593,4.30324989,0.086308482,,,593
0.594,4.29946787,0.08552248,,,594
0.595,4.2957182,0.084748095,,,595
0.596,4.29199967,0.083984684,,,596
0.597,4.28831221,0.0832321,,,597
0.598,4.28465628,0.082490161,,,598
0.599,4.28103172,0.081758796,,,599
0.6,4.27743833,0.08103794,,,600
0.601,4.2738759,0.08032753,,,601
0.602,4.2703443,0.079627363,,,602
0.603,4.26684338,0.078937258,,,603
0.604,4.26337204,0.078256842,,,604
0.605,4.25992895,0.077585666,,,605
0.606,4.25651393,0.076923671,,,606
0.607,4.25312678,0.0762708,,,607
0.608,4.24976729,0.075626983,,,608
0.609,4.24643468,0.074991782,,,609
0.61,4.2431285,0.074364986,,,610
0.611,4.23984882,0.07374646,,,611
0.612,4.23659565,0.073136084,,,612
0.613,4.23336884,0.072533808,,,613
0.614,4.23016819,0.071939583,,,614
0.615,4.22699355,0.071353348,,,615
0.616,4.22384468,0.070774866,,,616
0.617,4.2207214,0.070204022,,,617
0.618,4.21762329,0.069640615,,,618
0.619,4.21454993,0.069084443,,,619
0.62,4.21150116,0.068535462,,,620
0.621,4.20847683,0.067993627,,,621
0.622,4.20547677,0.067458891,,,622
0.623,4.20250031,0.066930959,,,623
0.624,4.19954702,0.066409652,,,624
0.625,4.19661648,0.065894814,,,625
0.626,4.19370793,0.065386155,,,626
0.627,4.19082121,0.064883631,,,627
0.628,4.18795619,0.064387202,,,628
0.629,4.18511273,0.063896832,,,629
0.63,4.18229062,0.063412396,,,630
0.631,4.1794896,0.062933715,,,631
0.632,4.17670956,0.062460741,,,632
0.633,4.17395042,0.061993359,,,633
0.634,4.17121206,0.061531519,,,634
0.635,4.16849434,0.061075185,,,635
0.636,4.16579714,0.060624324,,,636
0.637,4.1631203,0.060178884,,,637
0.638,4.1604634,0.059738655,,,638
0.639,4.15782626,0.05930356,,,639
0.64,4.15520852,0.05887347,,,640
0.641,4.15260972,0.058448204,,,641
0.642,4.15002973,0.058027729,,,642
0.643,4.14746843,0.057612016,,,643
0.644,4.14492571,0.057201037,,,644
0.645,4.14240137,0.05679471,,,645
0.646,4.13989509,0.056392873,,,646
0.647,4.13740674,0.055995489,,,647
0.648,4.13493619,0.055602463,,,648
0.649,4.13248332,0.05521373,,,649
0.65,4.13004802,0.054829264,,,650
0.651,4.12763018,0.05444904,,,651
0.652,4.12522969,0.054073031,,,652
0.653,4.12284629,0.05370114,,,653
0.654,4.12047967,0.053333231,,,654
0.655,4.1181297,0.052969271,,,655
0.656,4.11579591,0.052609113,,,656
0.657,4.11347807,0.052252686,,,657
0.658,4.11117608,0.051899968,,,658
0.659,4.10888983,0.051550936,,,659
0.66,4.10661924,0.051205568,,,660
0.661,4.10436415,0.050863799,,,661
0.662,4.10212438,0.050525528,,,662
0.663,4.09989981,0.050190729,,,663
0.664,4.0976903,0.04985932,,,664
0.665,4.09549573,0.049531251,,,665
0.666,4.09331601,0.0492065,,,666
0.667,4.09115104,0.048885049,,,667
0.668,4.08900073,0.048566877,,,668
0.669,4.08686493,0.048251939,,,669
0.67,4.08474323,0.047940096,,,670
0.671,4.08263551,0.047631315,,,671
0.672,4.08054158,0.047325535,,,672
0.673,4.07846123,0.047022678,,,673
0.674,4.07639437,0.046722727,,,674
0.675,4.07434092,0.046425663,,,675
0.676,4.0723008,0.046131471,,,676
0.677,4.07027393,0.045840133,,,677
0.678,4.06826023,0.045551594,,,678
0.679,4.06625962,0.045265813,,,679
0.68,4.06427202,0.044982765,,,680
0.681,4.0622972,0.044702375,,,681
0.682,4.06033507,0.044424612,,,682
0.683,4.05838555,0.044149461,,,683
0.684,4.05644856,0.043876908,,,684
0.685,4.05452402,0.043606936,,,685
0.686,4.05261185,0.043339522,,,686
0.687,4.05071177,0.043074573,,,687
0.688,4.04882367,0.042812053,,,688
0.689,4.04694741,0.042551926,,,689
0.69,4.04508277,0.042294124,,,690
0.691,4.04322969,0.042038629,,,691
0.692,4.04138809,0.04178543,,,692
0.693,4.0395579,0.041534511,,,693
0.694,4.03773905,0.04128586,,,694
0.695,4.03593147,0.041039457,,,695
0.696,4.03413502,0.040795239,,,696
0.697,4.0323496,0.040553182,,,697
0.698,4.03057513,0.040313257,,,698
0.699,4.02881149,0.040075419,,,699
0.7,4.02705861,0.039839656,,,700
0.701,4.02531643,0.039605955,,,701
0.702,4.02358489,0.039374305,,,702
0.703,4.02186391,0.039144693,,,703
0.704,4.02015345,0.038917105,,,704
0.705,4.01845325,0.038691479,,,705
0.706,4.01676321,0.038467783,,,706
0.707,4.01508319,0.038245989,,,707
0.708,4.01341294,0.038026033,,,708
0.709,4.01175241,0.037807904,,,709
0.71,4.01010153,0.037591589,,,710
0.711,4.00846025,0.037377079,,,711
0.712,4.00682851,0.037164363,,,712
0.713,4.00520626,0.036953431,,,713
0.714,4.00359343,0.036744256,,,714
0.715,4.00198994,0.036536798,,,715
0.716,4.00039574,0.036331045,,,716
0.717,3.99881078,0.036126972,,,717
0.718,3.99723504,0.035924565,,,718
0.719,3.99566844,0.035723814,,,719
0.72,3.99411094,0.035524711,,,720
0.721,3.99256248,0.035327245,,,721
0.722,3.99102302,0.035131407,,,722
0.723,3.9894925,0.034937188,,,723
0.724,3.9879707,0.03474454,,,724
0.725,3.98645747,0.034553431,,,725
0.726,3.98495272,0.034363838,,,726
0.727,3.98345629,0.03417572,,,727
0.728,3.98196813,0.033989068,,,728
0.729,3.98048819,0.033803873,,,729
0.73,3.97901643,0.033620127,,,730
0.731,3.9775528,0.033437822,,,731
0.732,3.97609726,0.033256949,,,732
0.733,3.97464976,0.033077501,,,733
0.734,3.97321035,0.032899462,,,734
0.735,3.97177902,0.032722819,,,735
0.736,3.97035572,0.032547555,,,736
0.737,3.96894036,0.032373645,,,737
0.738,3.96753289,0.032201081,,,738
0.739,3.96613328,0.032029856,,,739
0.74,3.96474147,0.031859962,,,740
0.741,3.96335743,0.031691392,,,741
0.742,3.96198111,0.031524138,,,742
0.743,3.96061247,0.031358192,,,743
0.744,3.95925134,0.031193526,,,744
0.745,3.95789748,0.031030095,,,745
0.746,3.95655082,0.030867881,,,746
0.747,3.95521119,0.030706855,,,747
0.748,3.95387858,0.030547011,,,748
0.749,3.95255292,0.03038834,,,749
0.75,3.9512342,0.030230838,,,750
0.751,3.94992237,0.030074497,,,751
0.752,3.94861739,0.02991931,,,752
0.753,3.94731923,0.029765272,,,753
0.754,3.94602784,0.029612376,,,754
0.755,3.94474326,0.029460607,,,755
0.756,3.94346546,0.029309956,,,756
0.757,3.9421944,0.0291604,,,757
0.758,3.94093003,0.029011933,,,758
0.759,3.93967233,0.028864546,,,759
0.76,3.93842126,0.028718234,,,760
0.761,3.93717677,0.028572992,,,761
0.762,3.93593884,0.028428814,,,762
0.763,3.93470743,0.028285692,,,763
0.764,3.9334825,0.028143623,,,764
0.765,3.93226401,0.028002596,,,765
0.766,3.93105177,0.02786258,,,766
0.767,3.92984569,0.027723553,,,767
0.768,3.92864559,0.027585489,,,768
0.769,3.92745145,0.027448382,,,769
0.77,3.92626323,0.027312226,,,770
0.771,3.9250809,0.027177017,,,771
0.772,3.92390443,0.027042749,,,772
0.773,3.92273379,0.026909416,,,773
0.774,3.92156895,0.026777015,,,774
0.775,3.92040987,0.026645539,,,775
0.776,3.91925653,0.026514984,,,776
0.777,3.9181089,0.026385337,,,777
0.778,3.916967,0.026256587,,,778
0.779,3.91583087,0.02612873,,,779
0.78,3.91470048,0.026001761,,,780
0.781,3.9135758,0.025875676,,,781
0.782,3.9124568,0.02575047,,,782
0.783,3.91134345,0.025626137,,,783
0.784,3.91023572,0.025502674,,,784
0.785,3.90913358,0.025380074,,,785
0.786,3.908037,0.025258335,,,786
0.787,3.90694595,0.025137451,,,787
0.788,3.90586039,0.025017413,,,788
0.789,3.90478019,0.024898197,,,789
0.79,3.90370517,0.024779773,,,790
0.791,3.90263527,0.024662133,,,791
0.792,3.90157047,0.024545274,,,792
0.793,3.90051073,0.02442919,,,793
0.794,3.89945604,0.024313877,,,794
0.795,3.89840637,0.024199333,,,795
0.796,3.89736169,0.024085552,,,796
0.797,3.89632198,0.02397253,,,797
0.798,3.8952872,0.023860263,,,798
0.799,3.89425735,0.023748748,,,799
0.8,3.89323236,0.023637976,,,800
0.801,3.8922122,0.023527929,,,801
0.802,3.89119688,0.023418602,,,802
0.803,3.89018636,0.02330999,,,803
0.804,3.88918064,0.023202091,,,804
0.805,3.88817967,0.0230949,,,805
0.806,3.88718345,0.022988414,,,806
0.807,3.88619193,0.022882628,,,807
0.808,3.88520511,0.02277754,,,808
0.809,3.88422295,0.022673145,,,809
0.81,3.88324543,0.02256944,,,810
0.811,3.88227253,0.022466421,,,811
0.812,3.88130422,0.022364083,,,812
0.813,3.88034042,0.022262406,,,813
0.814,3.87938104,0.022161375,,,814
0.815,3.87842605,0.022060987,,,815
0.816,3.87747545,0.021961238,,,816
0.817,3.87652921,0.021862125,,,817
0.818,3.8755873,0.021763644,,,818
0.819,3.8746497,0.021665793,,,819
0.82,3.8737164,0.021568569,,,820
0.821,3.87278736,0.021471967,,,821
0.822,3.87186258,0.021375984,,,822
0.823,3.87094202,0.021280618,,,823
0.824,3.87002567,0.021185865,,,824
0.825,3.86911349,0.021091717,,,825
0.826,3.86820542,0.020998155,,,826
0.827,3.86730144,0.020905176,,,827
0.828,3.86640152,0.020812778,,,828
0.829,3.86550565,0.020720956,,,829
0.83,3.86461381,0.020629708,,,830
0.831,3.86372597,0.020539032,,,831
0.832,3.86284212,0.020448923,,,832
0.833,3.86196223,0.02035938,,,833
0.834,3.8610863,0.020270399,,,834
0.835,3.86021429,0.020181978,,,835
0.836,3.85934619,0.020094113,,,836
0.837,3.85848197,0.020006801,,,837
0.838,3.85762159,0.019920031,,,838
0.839,3.85676501,0.019833792,,,839
0.84,3.8559122,0.01974808,,,840
0.841,3.85506315,0.019662892,,,841
0.842,3.85421784,0.019578226,,,842
0.843,3.85337625,0.019494079,,,843
0.844,3.85253836,0.019410448,,,844
0.845,3.85170416,0.01932733,,,845
0.846,3.85087363,0.019244724,,,846
0.847,3.85004674,0.019162627,,,847
0.848,3.84922349,0.019081035,,,848
0.849,3.84840385,0.018999946,,,849
0.85,3.8475878,0.018919358,,,850
0.851,3.8467753,0.018839262,,,851
0.852,3.8459663,0.018759645,,,852
0.853,3.84516073,0.0186805,,,853
0.854,3.84435859,0.018601824,,,854
0.855,3.84355986,0.018523615,,,855
0.856,3.84276453,0.01844587,,,856
0.857,3.84197256,0.018368587,,,857
0.858,3.84118396,0.018291765,,,858
0.859,3.8403987,0.0182154,,,859
0.86,3.83961677,0.01813949,,,860
0.861,3.83883815,0.018064032,,,861
0.862,3.83806283,0.017989026,,,862
0.863,3.83729079,0.017914468,,,863
0.864,3.83652201,0.017840354,,,864
0.865,3.83575648,0.01776668,,,865
0.866,3.83499419,0.017693439,,,866
0.867,3.83423512,0.017620628,,,867
0.868,3.83347925,0.017548244,,,868
0.869,3.83272658,0.017476285,,,869
0.87,3.83197708,0.017404749,,,870
0.871,3.83123074,0.017333634,,,871
0.872,3.83048755,0.017262938,,,872
0.873,3.82974748,0.017192658,,,873
0.874,3.82901053,0.017122793,,,874
0.875,3.82827669,0.01705334,,,875
0.876,3.82754593,0.016984298,,,876
0.877,3.82681824,0.016915665,,,877
0.878,3.82609358,0.016847433,,,878
0.879,3.82537192,0.016779596,,,879
0.88,3.82465323,0.016712152,,,880
0.881,3.82393746,0.016645091,,,881
0.882,3.82322459,0.01657841,,,882
0.883,3.8225146,0.016512108,,,883
0.884,3.82180749,0.016446183,,,884
0.885,3.82110325,0.016380633,,,885
0.886,3.82040185,0.016315455,,,886
0.887,3.81970328,0.016250649,,,887
0.888,3.81900754,0.016186212,,,888
0.889,3.8183146,0.016122143,,,889
0.89,3.81762446,0.016058439,,,890
0.891,3.8169371,0.015995099,,,891
0.892,3.81625251,0.015932121,,,892
0.893,3.81557068,0.015869498,,,893
0.894,3.8148916,0.015807231,,,894
0.895,3.81421525,0.015745315,,,895
0.896,3.81354163,0.015683748,,,896
0.897,3.81287073,0.015622527,,,897
0.898,3.81220253,0.015561649,,,898
0.899,3.81153702,0.015501114,,,899
0.9,3.81087419,0.01544092,,,900
0.901,3.81021403,0.015381064,,,901
0.902,3.80955652,0.015321546,,,902
0.903,3.80890165,0.015262364,,,903
0.904,3.80824942,0.015203516,,,904
0.905,3.8075998,0.015145001,,,905
0.906,3.80695279,0.015086817,,,906
0.907,3.80630834,0.015028957,,,907
0.908,3.80566644,0.014971418,,,908
0.909,3.80502707,0.014914197,,,909
0.91,3.80439022,0.014857294,,,910
0.911,3.80375586,0.014800704,,,911
0.912,3.80312396,0.014744422,,,912
0.913,3.8024945,0.014688447,,,913
0.914,3.80186749,0.014632776,,,914
0.915,3.8012429,0.014577409,,,915
0.916,3.80062073,0.014522344,,,916
0.917,3.80000096,0.014467579,,,917
0.918,3.79938358,0.014413114,,,918
0.919,3.79876859,0.014358946,,,919
0.92,3.79815597,0.014305075,,,920
0.921,3.79754571,0.014251499,,,921
0.922,3.7969378,0.014198215,,,922
0.923,3.79633224,0.01414522,,,923
0.924,3.79572901,0.014092512,,,924
0.925,3.7951281,0.014040091,,,925
0.926,3.79452951,0.013987954,,,926
0.927,3.7939332,0.013936099,,,927
0.928,3.79333917,0.01388452,,,928
0.929,3.79274739,0.013833215,,,929
0.93,3.79215787,0.013782183,,,930
0.931,3.79157057,0.013731423,,,931
0.932,3.79098551,0.013680934,,,932
0.933,3.79040267,0.013630714,,,933
0.934,3.78982203,0.013580762,,,934
0.935,3.78924359,0.013531077,,,935
0.936,3.78866735,0.013481657,,,936
0.937,3.78809327,0.013432501,,,937
0.938,3.78752135,0.013383604,,,938
0.939,3.78695155,0.013334963,,,939
0.94,3.78638388,0.013286576,,,940
0.941,3.78581831,0.013238444,,,941
0.942,3.78525484,0.013190563,,,942
0.943,3.78469347,0.013142934,,,943
0.944,3.7841342,0.013095557,,,944
0.945,3.78357705,0.013048431,,,945
0.946,3.783022,0.013001557,,,946
0.947,3.78246905,0.012954933,,,947
0.948,3.78191818,0.012908557,,,948
0.949,3.78136939,0.012862428,,,949
0.95,3.78082268,0.012816546,,,950
0.951,3.78027802,0.012770909,,,951
0.952,3.77973541,0.012725517,,,952
0.953,3.77919485,0.012680366,,,953
0.954,3.77865632,0.012635457,,,954
0.955,3.77811982,0.012590785,,,955
0.956,3.77758535,0.01254635,,,956
0.957,3.77705288,0.012502152,,,957
0.958,3.77652242,0.012458188,,,958
0.959,3.77599396,0.012414458,,,959
0.96,3.77546748,0.012370961,,,960
0.961,3.77494295,0.012327692,,,961
0.962,3.77442028,0.012284637,,,962
0.963,3.77389946,0.012241797,,,963
0.964,3.77338046,0.012199169,,,964
0.965,3.7728633,0.012156752,,,965
0.966,3.77234796,0.012114546,,,966
0.967,3.77183443,0.01207255,,,967
0.968,3.7713227,0.012030762,,,968
0.969,3.77081278,0.011989183,,,969
0.97,3.77030464,0.011947809,,,970
0.971,3.76979826,0.011906639,,,971
0.972,3.76929364,0.011865668,,,972
0.973,3.76879075,0.011824898,,,973
0.974,3.76828961,0.011784327,,,974
0.975,3.76779019,0.011743954,,,975
0.976,3.7672925,0.011703778,,,976
0.977,3.76679652,0.011663799,,,977
0.978,3.76630225,0.011624014,,,978
0.979,3.7658097,0.011584427,,,979
0.98,3.76531895,0.01154504,,,980
0.981,3.76482999,0.011505855,,,981
0.982,3.76434282,0.01146687,,,982
0.983,3.76385743,0.011428084,,,983
0.984,3.76337381,0.011389497,,,984
0.985,3.76289196,0.011351107,,,985
0.986,3.76241186,0.011312914,,,986
0.987,3.76193351,0.011274916,,,987
0.988,3.76145689,0.01123711,,,988
0.989,3.760982,0.011199494,,,989
0.99,3.76050881,0.011162067,,,990
0.991,3.76003733,0.011124827,,,991
0.992,3.75956754,0.011087775,,,992
0.993,3.75909944,0.011050909,,,993
0.994,3.75863303,0.011014228,,,994
0.995,3.75816829,0.010977731,,,995
0.996,3.75770522,0.010941418,,,996
0.997,3.75724381,0.010905288,,,997
0.998,3.75678401,0.010869336,,,998
0.999,3.75632572,0.010833553,,,999
1,3.75586896,0.01079794,,,1000
1.001,3.7554137,0.010762495,,,1001
1.002,3.75495995,0.010727218,,,1002
1.003,3.7545077,0.010692107,,,1003
1.004,3.75405693,0.010657163,,,1004
1.005,3.75360766,0.010622385,,,1005
1.006,3.75315988,0.010587773,,,1006
1.007,3.75271362,0.010553327,,,1007
1.008,3.75226885,0.010519047,,,1008
1.009,3.75182557,0.010484931,,,1009
1.01,3.75138378,0.01045098,,,1010
1.011,3.75094348,0.010417192,,,1011
1.012,3.75050465,0.010383567,,,1012
1.013,3.75006728,0.010350103,,,1013
1.014,3.74963138,0.010316801,,,1014
1.015,3.74919694,0.01028366,,,1015
1.016,3.74876396,0.010250678,,,1016
1.017,3.74833242,0.010217856,,,1017
1.018,3.74790241,0.010185196,,,1018
1.019,3.74747393,0.010152699,,,1019
1.02,3.74704698,0.010120364,,,1020
1.021,3.74662155,0.01008819,,,1021
1.022,3.74619763,0.010056176,,,1022
1.023,3.74577523,0.010024323,,,1023
1.024,3.7453543,0.009992625,,,1024
1.025,3.7449348,0.009961076,,,1025
1.026,3.74451669,0.009929674,,,1026
1.027,3.74409999,0.009898417,,,1027
1.028,3.74368468,0.009867307,,,1028
1.029,3.74327076,0.009836341,,,1029
1.03,3.74285822,0.009805519,,,1030
1.031,3.74244706,0.009774841,,,1031
1.032,3.74203727,0.009744306,,,1032
1.033,3.74162885,0.009713913,,,1033
1.034,3.74122179,0.009683662,,,1034
1.035,3.74081608,0.009653552,,,1035
1.036,3.74041173,0.009623583,,,1036
1.037,3.74000872,0.009593754,,,1037
1.038,3.739607,0.00956406,,,1038
1.039,3.73920655,0.009534498,,,1039
1.04,3.73880735,0.009505066,,,1040
1.041,3.7384094,0.009475766,,,1041
1.042,3.73801269,0.009446595,,,1042
1.043,3.73761723,0.009417554,,,1043
1.044,3.73722308,0.009388647,,,1044
1.045,3.73683024,0.009359874,,,1045
1.046,3.7364387,0.009331234,,,1046
1.047,3.73604847,0.009302727,,,1047
1.048,3.73565953,0.009274352,,,1048
1.049,3.73527189,0.009246109,,,1049
1.05,3.73488552,0.009217997,,,1050
1.051,3.73450044,0.009190015,,,1051
1.052,3.73411664,0.009162163,,,1052
1.053,3.7337341,0.009134441,,,1053
1.054,3.73335283,0.009106847,,,1054
1.055,3.73297282,0.009079382,,,1055
1.056,3.73259407,0.009052044,,,1056
1.057,3.73221657,0.009024834,,,1057
1.058,3.73184031,0.00899775,,,1058
1.059,3.73146529,0.008970792,,,1059
1.06,3.73109151,0.008943957,,,1060
1.061,3.73071894,0.008917246,,,1061
1.062,3.7303476,0.008890658,,,1062
1.063,3.72997746,0.008864191,,,1063
1.064,3.72960845,0.008837838,,,1064
1.065,3.72924054,0.0088116,,,1065
1.066,3.72887375,0.008785474,,,1066
1.067,3.72850806,0.008759462,,,1067
1.068,3.72814347,0.008733561,,,1068
1.069,3.72777997,0.008707773,,,1069
1.07,3.72741757,0.008682096,,,1070
1.071,3.72705626,0.008656529,,,1071
1.072,3.72669603,0.008631073,,,1072
1.073,3.72633688,0.008605727,,,1073
1.074,3.72597881,0.008580491,,,1074
1.075,3.72562181,0.008555364,,,1075
1.076,3.72526587,0.008530345,,,1076
1.077,3.724911,0.008505434,,,1077
1.078,3.72455719,0.008480632,,,1078
1.079,3.72420444,0.008455936,,,1079
1.08,3.72385274,0.008431347,,,1080
1.081,3.7235021,0.008406866,,,1081
1.082,3.72315255,0.008382492,,,1082
1.083,3.72280408,0.008358225,,,1083
1.084,3.72245673,0.008334066,,,1084
1.085,3.72211053,0.008310017,,,1085
1.086,3.72176548,0.008286076,,,1086
1.087,3.72142158,0.008262245,,,1087
1.088,3.72107881,0.008238521,,,1088
1.089,3.72073719,0.008214906,,,1089
1.09,3.72039669,0.008191397,,,1090
1.091,3.72005733,0.008167996,,,1091
1.092,3.71971908,0.008144701,,,1092
1.093,3.71938196,0.008121511,,,1093
1.094,3.71904595,0.008098427,,,1094
1.095,3.71871105,0.008075449,,,1095
1.096,3.71837725,0.008052575,,,1096
1.097,3.71804456,0.008029805,,,1097
1.098,3.71771296,0.008007139,,,1098
1.099,3.71738246,0.007984576,,,1099
1.1,3.71705305,0.007962116,,,1100
1.101,3.71672472,0.007939759,,,1101
1.102,3.71639748,0.007917504,,,1102
1.103,3.71607131,0.00789535,,,1103
1.104,3.71574619,0.007873296,,,1104
1.105,3.71542205,0.007851336,,,1105
1.106,3.71509886,0.007829466,,,1106
1.107,3.71477659,0.007807684,,,1107
1.108,3.71445525,0.007785991,,,1108
1.109,3.71413483,0.007764386,,,1109
1.11,3.71381532,0.007742869,,,1110
1.111,3.71349673,0.00772144,,,1111
1.112,3.71317905,0.007700097,,,1112
1.113,3.71286227,0.007678841,,,1113
1.114,3.7125464,0.007657672,,,1114
1.115,3.71223143,0.007636588,,,1115
1.116,3.71191736,0.00761559,,,1116
1.117,3.71160418,0.007594678,,,1117
1.118,3.7112919,0.007573851,,,1118
1.119,3.7109805,0.007553108,,,1119
1.12,3.71066998,0.007532449,,,1120
1.121,3.71036035,0.007511875,,,1121
1.122,3.7100516,0.007491384,,,1122
1.123,3.70974372,0.007470977,,,1123
1.124,3.70943671,0.007450653,,,1124
1.125,3.70913057,0.007430411,,,1125
1.126,3.7088253,0.007410252,,,1126
1.127,3.70852089,0.007390174,,,1127
1.128,3.70821735,0.007370179,,,1128
1.129,3.70791472,0.007350265,,,1129
1.13,3.70761299,0.007330435,,,1130
1.131,3.70731216,0.007310686,,,1131
1.132,3.70701223,0.00729102,,,1132
1.133,3.7067132,0.007271435,,,1133
1.134,3.70641506,0.007251931,,,1134
1.135,3.7061178,0.007232508,,,1135
1.136,3.70582144,0.007213166,,,1136
1.137,3.70552595,0.007193904,,,1137
1.138,3.70523134,0.007174721,,,1138
1.139,3.70493761,0.007155619,,,1139
1.14,3.70464475,0.007136595,,,1140
1.141,3.70435276,0.007117651,,,1141
1.142,3.70406163,0.007098786,,,1142
1.143,3.70377137,0.007079998,,,1143
1.144,3.70348197,0.007061289,,,1144
1.145,3.70319343,0.007042658,,,1145
1.146,3.70290574,0.007024104,,,1146
1.147,3.7026189,0.007005627,,,1147
1.148,3.70233291,0.006987227,,,1148
1.149,3.70204776,0.006968904,,,1149
1.15,3.70176345,0.006950656,,,1150
1.151,3.70148,0.006932486,,,1151
1.152,3.70119742,0.006914392,,,1152
1.153,3.7009157,0.006896374,,,1153
1.154,3.70063482,0.006878429,,,1154
1.155,3.70035477,0.006860558,,,1155
1.156,3.70007554,0.006842759,,,1156
1.157,3.69979713,0.006825031,,,1157
1.158,3.69951954,0.006807376,,,1158
1.159,3.69924277,0.006789793,,,1159
1.16,3.69896682,0.006772281,,,1160
1.161,3.69869167,0.00675484,,,1161
1.162,3.69841733,0.006737469,,,1162
1.163,3.6981438,0.00672017,,,1163
1.164,3.69787107,0.00670294,,,1164
1.165,3.69759914,0.00668578,,,1165
1.166,3.69732801,0.006668691,,,1166
1.167,3.69705767,0.00665167,,,1167
1.168,3.69678812,0.006634719,,,1168
1.169,3.69651936,0.006617837,,,1169
1.17,3.69625138,0.006601023,,,1170
1.171,3.69598419,0.006584278,,,1171
1.172,3.69571778,0.006567601,,,1172
1.173,3.69545214,0.006550991,,,1173
1.174,3.69518728,0.00653445,,,1174
1.175,3.69492317,0.006517974,,,1175
1.176,3.69465976,0.00650156,,,1176
1.177,3.69439707,0.006485209,,,1177
1.178,3.69413509,0.00646892,,,1178
1.179,3.6938738,0.006452693,,,1179
1.18,3.69361323,0.006436528,,,1180
1.181,3.69335336,0.006420424,,,1181
1.182,3.6930942,0.006404381,,,1182
1.183,3.69283574,0.006388399,,,1183
1.184,3.69257798,0.006372477,,,1184
1.185,3.69232092,0.006356616,,,1185
1.186,3.69206456,0.006340815,,,1186
1.187,3.69180889,0.006325074,,,1187
1.188,3.69155391,0.006309393,,,1188
1.189,3.69129962,0.006293772,,,1189
1.19,3.69104602,0.006278209,,,1190
1.191,3.6907931,0.006262706,,,1191
1.192,3.69054086,0.006247262,,,1192
1.193,3.6902893,0.006231876,,,1193
1.194,3.69003842,0.006216549,,,1194
1.195,3.68978822,0.00620128,,,1195
1.196,3.68953869,0.006186068,,,1196
1.197,3.68928982,0.006170915,,,1197
1.198,3.68904163,0.006155819,,,1198
1.199,3.6887941,0.00614078,,,1199
1.2,3.68854725,0.006125799,,,1200
1.201,3.6883011,0.006110877,,,1201
1.202,3.68805565,0.006096013,,,1202
1.203,3.6878109,0.006081208,,,1203
1.204,3.68756685,0.00606646,,,1204
1.205,3.68732348,0.006051771,,,1205
1.206,3.68708081,0.006037138,,,1206
1.207,3.68683883,0.006022563,,,1207
1.208,3.68659753,0.006008045,,,1208
1.209,3.6863569,0.005993582,,,1209
1.21,3.68611695,0.005979174,,,1210
1.211,3.68587767,0.005964822,,,1211
1.212,3.68563906,0.005950524,,,1212
1.213,3.68540112,0.005936282,,,1213
1.214,3.68516384,0.005922094,,,1214
1.215,3.68492723,0.005907961,,,1215
1.216,3.68469127,0.005893882,,,1216
1.217,3.68445598,0.005879858,,,1217
1.218,3.68422134,0.005865887,,,1218
1.219,3.68398735,0.005851969,,,1219
1.22,3.68375402,0.005838106,,,1220
1.221,3.68352133,0.005824295,,,1221
1.222,3.6832893,0.005810538,,,1222
1.223,3.6830579,0.005796833,,,1223
1.224,3.68282716,0.005783181,,,1224
1.225,3.68259705,0.005769582,,,1225
1.226,3.68236757,0.005756035,,,1226
1.227,3.68213871,0.005742537,,,1227
1.228,3.68191046,0.005729089,,,1228
1.229,3.68168282,0.005715691,,,1229
1.23,3.68145578,0.005702342,,,1230
1.231,3.68122935,0.005689043,,,1231
1.232,3.68100352,0.005675792,,,1232
1.233,3.68077829,0.005662591,,,1233
1.234,3.68055365,0.005649437,,,1234
1.235,3.68032962,0.005636333,,,1235
1.236,3.68010617,0.005623276,,,1236
1.237,3.67988331,0.005610267,,,1237
1.238,3.67966102,0.005597304,,,1238
1.239,3.67943931,0.005584388,,,1239
1.24,3.67921817,0.005571518,,,1240
1.241,3.6789976,0.005558694,,,1241
1.242,3.6787776,0.005545915,,,1242
1.243,3.67855816,0.005533183,,,1243
1.244,3.67833929,0.005520496,,,1244
1.245,3.67812098,0.005507855,,,1245
1.246,3.67790324,0.005495258,,,1246
1.247,3.67768605,0.005482707,,,1247
1.248,3.67746942,0.005470201,,,1248
1.249,3.67725335,0.00545774,,,1249
1.25,3.67703783,0.005445323,,,1250
1.251,3.67682287,0.005432951,,,1251
1.252,3.67660845,0.005420623,,,1252
1.253,3.67639459,0.005408339,,,1253
1.254,3.67618127,0.005396099,,,1254
1.255,3.67596851,0.005383902,,,1255
1.256,3.6757563,0.00537175,,,1256
1.257,3.67554464,0.00535964,,,1257
1.258,3.67533352,0.005347574,,,1258
1.259,3.67512296,0.005335551,,,1259
1.26,3.67491293,0.00532357,,,1260
1.261,3.67470345,0.005311633,,,1261
1.262,3.67449451,0.005299738,,,1262
1.263,3.6742861,0.005287885,,,1263
1.264,3.67407823,0.005276075,,,1264
1.265,3.6738709,0.005264307,,,1265
1.266,3.6736641,0.005252581,,,1266
1.267,3.67345784,0.005240896,,,1267
1.268,3.67325212,0.005229254,,,1268
1.269,3.67304695,0.005217654,,,1269
1.27,3.67284232,0.005206096,,,1270
1.271,3.67263823,0.005194579,,,1271
1.272,3.67243467,0.005183103,,,1272
1.273,3.67223166,0.005171669,,,1273
1.274,3.67202917,0.005160276,,,1274
1.275,3.67182722,0.005148925,,,1275
1.276,3.67162581,0.005137614,,,1276
1.277,3.67142492,0.005126343,,,1277
1.278,3.67122456,0.005115114,,,1278
1.279,3.67102472,0.005103924,,,1279
1.28,3.67082541,0.005092775,,,1280
1.281,3.67062663,0.005081666,,,1281
1.282,3.67042836,0.005070597,,,1282
1.283,3.6702306,0.005059567,,,1283
1.284,3.67003336,0.005048576,,,1284
1.285,3.66983662,0.005037623,,,1285
1.286,3.6696404,0.005026709,,,1286
1.287,3.66944468,0.005015834,,,1287
1.288,3.66924947,0.005004996,,,1288
1.289,3.66905476,0.004994197,,,1289
1.29,3.66886055,0.004983436,,,1290
1.291,3.66866684,0.004972712,,,1291
1.292,3.66847363,0.004962027,,,1292
1.293,3.66828092,0.004951379,,,1293
1.294,3.6680887,0.004940769,,,1294
1.295,3.66789698,0.004930195,,,1295
1.296,3.66770575,0.00491966,,,1296
1.297,3.66751501,0.004909161,,,1297
1.298,3.66732476,0.004898699,,,1298
1.299,3.667135,0.004888274,,,1299
1.3,3.6669457,0.004877884,,,1300
1.301,3.66675687,0.004867529,,,1301
1.302,3.66656851,0.004857209,,,1302
1.303,3.66638062,0.004846925,,,1303
1.304,3.66619319,0.004836675,,,1304
1.305,3.66600623,0.00482646,,,1305
1.306,3.66581972,0.00481628,,,1306
1.307,3.66563368,0.004806134,,,1307
1.308,3.6654481,0.004796023,,,1308
1.309,3.66526297,0.004785946,,,1309
1.31,3.6650783,0.004775903,,,1310
1.311,3.66489408,0.004765894,,,1311
1.312,3.66471032,0.004755919,,,1312
1.313,3.66452699,0.004745976,,,1313
1.314,3.6643441,0.004736066,,,1314
1.315,3.66416165,0.004726189,,,1315
1.316,3.66397964,0.004716344,,,1316
1.317,3.66379806,0.004706531,,,1317
1.318,3.66361691,0.004696751,,,1318
1.319,3.6634362,0.004687003,,,1319
1.32,3.66325592,0.004677287,,,1320
1.321,3.66307608,0.004667603,,,1321
1.322,3.66289666,0.004657951,,,1322
1.323,3.66271766,0.00464833,,,1323
1.324,3.6625391,0.004638741,,,1324
1.325,3.66236096,0.004629184,,,1325
1.326,3.66218324,0.004619658,,,1326
1.327,3.66200594,0.004610163,,,1327
1.328,3.66182907,0.004600699,,,1328
1.329,3.66165262,0.004591267,,,1329
1.33,3.66147658,0.004581866,,,1330
1.331,3.66130096,0.004572495,,,1331
1.332,3.66112576,0.004563155,,,1332
1.333,3.66095098,0.004553846,,,1333
1.334,3.66077663,0.004544568,,,1334
1.335,3.6606027,0.004535321,,,1335
1.336,3.6604292,0.004526105,,,1336
1.337,3.66025613,0.004516919,,,1337
1.338,3.66008347,0.004507764,,,1338
1.339,3.65991124,0.004498639,,,1339
1.34,3.65973943,0.004489544,,,1340
1.341,3.65956803,0.00448048,,,1341
1.342,3.65939706,0.004471446,,,1342
1.343,3.6592265,0.004462442,,,1343
1.344,3.65905638,0.004453468,,,1344
1.345,3.65888668,0.004444525,,,1345
1.346,3.6587174,0.004435611,,,1346
1.347,3.65854855,0.004426727,,,1347
1.348,3.65838012,0.004417872,,,1348
1.349,3.65821211,0.004409048,,,1349
1.35,3.65804452,0.004400253,,,1350
1.351,3.65787735,0.004391487,,,1351
1.352,3.6577106,0.004382751,,,1352
1.353,3.65754426,0.004374044,,,1353
1.354,3.65737834,0.004365366,,,1354
1.355,3.65721283,0.004356717,,,1355
1.356,3.65704774,0.004348097,,,1356
1.357,3.65688305,0.004339506,,,1357
1.358,3.65671878,0.004330944,,,1358
1.359,3.65655491,0.00432241,,,1359
1.36,3.65639145,0.004313905,,,1360
1.361,3.65622839,0.004305429,,,1361
1.362,3.65606574,0.004296981,,,1362
1.363,3.6559035,0.004288561,,,1363
1.364,3.65574165,0.004280169,,,1364
1.365,3.65558021,0.004271806,,,1365
1.366,3.65541916,0.00426347,,,1366
1.367,3.65525852,0.004255162,,,1367
1.368,3.65509827,0.004246882,,,1368
1.369,3.6549384,0.004238629,,,1369
1.37,3.65477891,0.004230402,,,1370
1.371,3.6546198,0.004222202,,,1371
1.372,3.65446105,0.004214027,,,1372
1.373,3.65430268,0.004205878,,,1373
1.374,3.65414468,0.004197756,,,1374
1.375,3.65398705,0.004189659,,,1375
1.376,3.65382977,0.004181587,,,1376
1.377,3.65367286,0.004173539,,,1377
1.378,3.65351629,0.004165517,,,1378
1.379,3.65336008,0.004157518,,,1379
1.38,3.65320422,0.004149545,,,1380
1.381,3.65304871,0.004141595,,,1381
1.382,3.65289355,0.00413367,,,1382
1.383,3.65273874,0.004125769,,,1383
1.384,3.65258428,0.004117892,,,1384
1.385,3.65243016,0.004110039,,,1385
1.386,3.65227639,0.00410221,,,1386
1.387,3.65212296,0.004094405,,,1387
1.388,3.65196988,0.004086624,,,1388
1.389,3.65181713,0.004078866,,,1389
1.39,3.65166473,0.004071132,,,1390
1.391,3.65151268,0.004063422,,,1391
1.392,3.65136096,0.004055735,,,1392
1.393,3.65120958,0.004048072,,,1393
1.394,3.65105853,0.004040432,,,1394
1.395,3.65090783,0.004032815,,,1395
1.396,3.65075746,0.004025221,,,1396
1.397,3.65060742,0.004017651,,,1397
1.398,3.65045772,0.004010104,,,1398
1.399,3.65030835,0.004002579,,,1399
1.4,3.65015931,0.003995078,,,1400
1.401,3.65001061,0.003987599,,,1401
1.402,3.64986223,0.003980143,,,1402
1.403,3.64971418,0.00397271,,,1403
1.404,3.64956646,0.003965299,,,1404
1.405,3.64941907,0.003957911,,,1405
1.406,3.64927201,0.003950546,,,1406
1.407,3.64912527,0.003943203,,,1407
1.408,3.64897888,0.003935882,,,1408
1.409,3.64883281,0.003928584,,,1409
1.41,3.64868708,0.003921309,,,1410
1.411,3.6485417,0.003914056,,,1411
1.412,3.64839665,0.003906826,,,1412
1.413,3.64825195,0.003899618,,,1413
1.414,3.64810759,0.003892432,,,1414
1.415,3.64796356,0.003885269,,,1415
1.416,3.64781987,0.003878127,,,1416
1.417,3.64767652,0.003871008,,,1417
1.418,3.6475335,0.003863911,,,1418
1.419,3.64739082,0.003856836,,,1419
1.42,3.64724847,0.003849783,,,1420
1.421,3.64710645,0.003842752,,,1421
1.422,3.64696477,0.003835742,,,1422
1.423,3.64682342,0.003828755,,,1423
1.424,3.64668239,0.003821789,,,1424
1.425,3.6465417,0.003814844,,,1425
1.426,3.64640133,0.003807921,,,1426
1.427,3.64626129,0.00380102,,,1427
1.428,3.64612157,0.003794139,,,1428
1.429,3.64598218,0.003787281,,,1429
1.43,3.64584312,0.003780443,,,1430
1.431,3.64570437,0.003773626,,,1431
1.432,3.64556595,0.003766831,,,1432
1.433,3.64542785,0.003760057,,,1433
1.434,3.64529007,0.003753303,,,1434
1.435,3.64515261,0.003746571,,,1435
1.436,3.64501547,0.003739859,,,1436
1.437,3.64487865,0.003733169,,,1437
1.438,3.64474214,0.003726499,,,1438
1.439,3.64460595,0.003719849,,,1439
1.44,3.64447007,0.00371322,,,1440
1.441,3.64433451,0.003706612,,,1441
1.442,3.64419926,0.003700024,,,1442
1.443,3.64406432,0.003693457,,,1443
1.444,3.64392969,0.003686909,,,1444
1.445,3.64379538,0.003680382,,,1445
1.446,3.64366136,0.003673875,,,1446
1.447,3.64352763,0.003667386,,,1447
1.448,3.6433942,0.003660917,,,1448
1.449,3.64326106,0.003654465,,,1449
1.45,3.6431282,0.003648033,,,1450
1.451,3.64299564,0.003641619,,,1451
1.452,3.64286336,0.003635223,,,1452
1.453,3.64273137,0.003628846,,,1453
1.454,3.64259967,0.003622487,,,1454
1.455,3.64246825,0.003616147,,,1455
1.456,3.64233712,0.003609825,,,1456
1.457,3.64220627,0.003603521,,,1457
1.458,3.6420757,0.003597235,,,1458
1.459,3.64194542,0.003590968,,,1459
1.46,3.64181542,0.003584718,,,1460
1.461,3.6416857,0.003578487,,,1461
1.462,3.64155626,0.003572273,,,1462
1.463,3.6414271,0.003566078,,,1463
1.464,3.64129822,0.0035599,,,1464
1.465,3.64116961,0.00355374,,,1465
1.466,3.64104129,0.003547598,,,1466
1.467,3.64091324,0.003541473,,,1467
1.468,3.64078546,0.003535366,,,1468
1.469,3.64065796,0.003529277,,,1469
1.47,3.64053074,0.003523205,,,1470
1.471,3.64040378,0.00351715,,,1471
1.472,3.6402771,0.003511113,,,1472
1.473,3.6401507,0.003505093,,,1473
1.474,3.64002456,0.003499091,,,1474
1.475,3.63989869,0.003493106,,,1475
1.476,3.6397731,0.003487138,,,1476
1.477,3.63964777,0.003481187,,,1477
1.478,3.63952271,0.003475254,,,1478
1.479,3.63939791,0.003469337,,,1479
1.48,3.63927339,0.003463437,,,1480
1.481,3.63914913,0.003457555,,,1481
1.482,3.63902513,0.003451689,,,1482
1.483,3.6389014,0.00344584,,,1483
1.484,3.63877794,0.003440008,,,1484
1.485,3.63865475,0.003434193,,,1485
1.486,3.63853183,0.003428394,,,1486
1.487,3.63840918,0.003422613,,,1487
1.488,3.6382868,0.003416848,,,1488
1.489,3.63816468,0.003411099,,,1489
1.49,3.63804282,0.003405367,,,1490
1.491,3.63792122,0.003399651,,,1491
1.492,3.63779988,0.003393951,,,1492
1.493,3.63767881,0.003388267,,,1493
1.494,3.63755799,0.003382599,,,1494
1.495,3.63743742,0.003376947,,,1495
1.496,3.63731712,0.003371311,,,1496
1.497,3.63719707,0.003365691,,,1497
1.498,3.63707728,0.003360087,,,1498
1.499,3.63695774,0.003354498,,,1499
1.5,3.63683846,0.003348925,,,1500
1.501,3.63671943,0.003343368,,,1501
1.502,3.63660066,0.003337827,,,1502
1.503,3.63648213,0.003332301,,,1503
1.504,3.63636386,0.003326791,,,1504
1.505,3.63624584,0.003321296,,,1505
1.506,3.63612807,0.003315817,,,1506
1.507,3.63601055,0.003310353,,,1507
1.508,3.63589328,0.003304905,,,1508
1.509,3.63577626,0.003299472,,,1509
1.51,3.63565949,0.003294054,,,1510
1.511,3.63554296,0.003288651,,,1511
1.512,3.63542668,0.003283264,,,1512
1.513,3.63531064,0.003277892,,,1513
1.514,3.63519485,0.003272535,,,1514
1.515,3.6350793,0.003267193,,,1515
1.516,3.634964,0.003261866,,,1516
1.517,3.63484894,0.003256554,,,1517
1.518,3.63473412,0.003251257,,,1518
1.519,3.63461955,0.003245974,,,1519
1.52,3.63450522,0.003240707,,,1520
1.521,3.63439112,0.003235454,,,1521
1.522,3.63427727,0.003230217,,,1522
1.523,3.63416365,0.003224993,,,1523
1.524,3.63405028,0.003219785,,,1524
1.525,3.63393714,0.00321459,,,1525
1.526,3.63382424,0.00320941,,,1526
1.527,3.63371158,0.003204244,,,1527
1.528,3.63359915,0.003199093,,,1528
1.529,3.63348696,0.003193956,,,1529
1.53,3.633375,0.003188833,,,1530
1.531,3.63326328,0.003183724,,,1531
1.532,3.63315179,0.003178629,,,1532
1.533,3.63304054,0.003173548,,,1533
1.534,3.63292952,0.003168481,,,1534
1.535,3.63281872,0.003163427,,,1535
1.536,3.63270816,0.003158387,,,1536
1.537,3.63259783,0.00315336,,,1537
1.538,3.63248773,0.003148347,,,1538
1.539,3.63237786,0.003143348,,,1539
1.54,3.63226821,0.003138361,,,1540
1.541,3.63215879,0.003133389,,,1541
1.542,3.6320496,0.003128429,,,1542
1.543,3.63194064,0.003123483,,,1543
1.544,3.6318319,0.00311855,,,1544
1.545,3.63172338,0.00311363,,,1545
1.546,3.63161509,0.003108723,,,1546
1.547,3.63150703,0.00310383,,,1547
1.548,3.63139918,0.003098949,,,1548
1.549,3.63129156,0.003094082,,,1549
1.55,3.63118417,0.003089227,,,1550
1.551,3.63107699,0.003084386,,,1551
1.552,3.63097003,0.003079557,,,1552
1.553,3.6308633,0.003074742,,,1553
1.554,3.63075678,0.003069939,,,1554
1.555,3.63065049,0.003065149,,,1555
1.556,3.63054441,0.003060372,,,1556
1.557,3.63043855,0.003055608,,,1557
1.558,3.63033291,0.003050856,,,1558
1.559,3.63022749,0.003046117,,,1559
1.56,3.63012228,0.003041391,,,1560
1.561,3.63001729,0.003036677,,,1561
1.562,3.62991251,0.003031976,,,1562
1.563,3.62980795,0.003027288,,,1563
1.564,3.6297036,0.003022611,,,1564
1.565,3.62959946,0.003017948,,,1565
1.566,3.62949553,0.003013296,,,1566
1.567,3.62939181,0.003008657,,,1567
1.568,3.6292883,0.003004029,,,1568
1.569,3.62918499,0.002999414,,,1569
1.57,3.62908189,0.002994811,,,1570
1.571,3.628979,0.002990219,,,1571
1.572,3.62887631,0.00298564,,,1572
1.573,3.62877383,0.002981072,,,1573
1.574,3.62867155,0.002976516,,,1574
1.575,3.62856947,0.002971973,,,1575
1.576,3.6284676,0.00296744,,,1576
1.577,3.62836593,0.00296292,,,1577
1.578,3.62826446,0.002958412,,,1578
1.579,3.62816319,0.002953915,,,1579
1.58,3.62806213,0.002949429,,,1580
1.581,3.62796126,0.002944956,,,1581
1.582,3.62786061,0.002940495,,,1582
1.583,3.62776016,0.002936045,,,1583
1.584,3.62765991,0.002931608,,,1584
1.585,3.62755988,0.002927183,,,1585
1.586,3.62746005,0.00292277,,,1586
1.587,3.62736042,0.002918368,,,1587
1.588,3.627261,0.002913979,,,1588
1.589,3.62716178,0.002909602,,,1589
1.59,3.62706276,0.002905236,,,1590
1.591,3.62696395,0.002900882,,,1591
1.592,3.62686534,0.002896541,,,1592
1.593,3.62676693,0.00289221,,,1593
1.594,3.62666873,0.002887892,,,1594
1.595,3.62657072,0.002883585,,,1595
1.596,3.62647292,0.00287929,,,1596
1.597,3.62637531,0.002875007,,,1597
1.598,3.6262779,0.002870735,,,1598
1.599,3.6261807,0.002866475,,,1599
1.6,3.62608369,0.002862226,,,1600
1.601,3.62598687,0.002857989,,,1601
1.602,3.62589026,0.002853763,,,1602
1.603,3.62579384,0.002849549,,,1603
1.604,3.62569762,0.002845346,,,1604
1.605,3.62560159,0.002841155,,,1605
1.606,3.62550576,0.002836974,,,1606
1.607,3.62541013,0.002832806,,,1607
1.608,3.62531468,0.002828648,,,1608
1.609,3.62521943,0.002824502,,,1609
1.61,3.62512438,0.002820366,,,1610
1.611,3.62502951,0.002816241,,,1611
1.612,3.62493484,0.002812128,,,1612
1.613,3.62484036,0.002808025,,,1613
1.614,3.62474607,0.002803932,,,1614
1.615,3.62465197,0.002799851,,,1615
1.616,3.62455806,0.00279578,,,1616
1.617,3.62446434,0.00279172,,,1617
1.618,3.6243708,0.002787671,,,1618
1.619,3.62427746,0.002783632,,,1619
1.62,3.6241843,0.002779604,,,1620
1.621,3.62409133,0.002775586,,,1621
1.622,3.62399855,0.00277158,,,1622
1.623,3.62390595,0.002767583,,,1623
1.624,3.62381354,0.002763597,,,1624
1.625,3.62372131,0.002759622,,,1625
1.626,3.62362927,0.002755657,,,1626
1.627,3.62353741,0.002751702,,,1627
1.628,3.62344574,0.002747758,,,1628
1.629,3.62335425,0.002743824,,,1629
1.63,3.62326294,0.0027399,,,1630
1.631,3.62317182,0.002735987,,,1631
1.632,3.62308087,0.002732083,,,1632
1.633,3.62299007,0.002728187,,,1633
1.634,3.62289941,0.002724298,,,1634
1.635,3.62280889,0.002720416,,,1635
1.636,3.62271852,0.00271654,,,1636
1.637,3.62262828,0.002712673,,,1637
1.638,3.62253819,0.002708812,,,1638
1.639,3.62244824,0.002704958,,,1639
1.64,3.62235843,0.002701111,,,1640
1.641,3.62226876,0.002697271,,,1641
1.642,3.62217923,0.002693438,,,1642
1.643,3.62208984,0.002689612,,,1643
1.644,3.62200059,0.002685792,,,1644
1.645,3.62191148,0.00268198,,,1645
1.646,3.62182251,0.002678175,,,1646
1.647,3.62173368,0.002674376,,,1647
1.648,3.62164498,0.002670585,,,1648
1.649,3.62155643,0.0026668,,,1649
1.65,3.62146801,0.002663022,,,1650
1.651,3.62137973,0.002659251,,,1651
1.652,3.62129158,0.002655487,,,1652
1.653,3.62120358,0.002651729,,,1653
1.654,3.62111571,0.002647979,,,1654
1.655,3.62102797,0.002644235,,,1655
1.656,3.62094038,0.002640498,,,1656
1.657,3.62085293,0.002636768,,,1657
1.658,3.62076562,0.002633045,,,1658
1.659,3.62067845,0.002629329,,,1659
1.66,3.62059143,0.002625621,,,1660
1.661,3.62050455,0.00262192,,,1661
1.662,3.62041781,0.002618225,,,1662
1.663,3.6203312,0.002614538,,,1663
1.664,3.62024474,0.002610858,,,1664
1.665,3.62015842,0.002607184,,,1665
1.666,3.62007224,0.002603518,,,1666
1.667,3.6199862,0.002599859,,,1667
1.668,3.6199003,0.002596206,,,1668
1.669,3.61981454,0.002592561,,,1669
1.67,3.61972891,0.002588922,,,1670
1.671,3.61964342,0.002585291,,,1671
1.672,3.61955808,0.002581666,,,1672
1.673,3.61947286,0.002578048,,,1673
1.674,3.61938779,0.002574437,,,1674
1.675,3.61930285,0.002570833,,,1675
1.676,3.61921805,0.002567235,,,1676
1.677,3.61913339,0.002563645,,,1677
1.678,3.61904886,0.002560061,,,1678
1.679,3.61896447,0.002556484,,,1679
1.68,3.61888022,0.002552914,,,1680
1.681,3.61879609,0.00254935,,,1681
1.682,3.61871211,0.002545794,,,1682
1.683,3.61862826,0.002542244,,,1683
1.684,3.61854454,0.0025387,,,1684
1.685,3.61846096,0.002535164,,,1685
1.686,3.61837751,0.002531633,,,1686
1.687,3.61829419,0.00252811,,,1687
1.688,3.61821101,0.002524593,,,1688
1.689,3.61812796,0.002521083,,,1689
1.69,3.61804504,0.00251758,,,1690
1.691,3.61796226,0.002514083,,,1691
1.692,3.6178796,0.002510592,,,1692
1.693,3.61779708,0.002507109,,,1693
1.694,3.61771469,0.002503631,,,1694
1.695,3.61763243,0.002500161,,,1695
1.696,3.61755031,0.002496696,,,1696
1.697,3.61746831,0.002493239,,,1697
1.698,3.61738644,0.002489787,,,1698
